# Binning: 200 channels
# Deadtime Correction: on
Channel	m/z	Intensity
100	0.000229	0
300	0.000449	73
500	0.000742	1
700	0.001110	0
900	0.001550	0
1100	0.002065	0
1300	0.002652	4
1500	0.003314	6
1700	0.004049	10
1900	0.004857	0
2100	0.005739	0
2300	0.006695	0
2500	0.007724	1
2700	0.008826	0
2900	0.010002	0
3100	0.011252	1
3300	0.012575	0
3500	0.013972	0
3700	0.015442	0
3900	0.016986	0
4100	0.018603	0
4300	0.020294	0
4500	0.022059	0
4700	0.023897	0
4900	0.025808	1
5100	0.027793	1
5300	0.029852	0
5500	0.031984	1
5700	0.034190	0
5900	0.036469	1
6100	0.038822	0
6300	0.041248	0
6500	0.043748	0
6700	0.046321	0
6900	0.048968	0
7100	0.051688	0
7300	0.054482	0
7500	0.057350	0
7700	0.060291	0
7900	0.063306	0
8100	0.066394	0
8300	0.069555	0
8500	0.072791	0
8700	0.076099	0
8900	0.079482	0
9100	0.082938	0
9300	0.086467	0
9500	0.090070	0
9700	0.093746	0
9900	0.097496	0
10100	0.101320	0
10300	0.105217	0
10500	0.109187	0
10700	0.113232	0
10900	0.117349	1
11100	0.121541	0
11300	0.125805	0
11500	0.130144	0
11700	0.134555	0
11900	0.139041	0
12100	0.143600	0
12300	0.148232	0
12500	0.152938	0
12700	0.157718	1
12900	0.162571	0
13100	0.167497	0
13300	0.172497	0
13500	0.177571	0
13700	0.182718	1
13900	0.187939	0
14100	0.193233	0
14300	0.198601	0
14500	0.204043	0
14700	0.209558	0
14900	0.215146	1
15100	0.220808	0
15300	0.226544	0
15500	0.232353	0
15700	0.238235	0
15900	0.244191	0
16100	0.250221	0
16300	0.256324	0
16500	0.262501	0
16700	0.268751	0
16900	0.275075	0
17100	0.281473	0
17300	0.287944	0
17500	0.294488	1
17700	0.301106	0
17900	0.307798	0
18100	0.314563	0
18300	0.321401	1
18500	0.328313	0
18700	0.335299	0
18900	0.342358	1
19100	0.349491	1
19300	0.356698	0
19500	0.363977	0
19700	0.371331	0
19900	0.378758	1
20100	0.386258	1
20300	0.393832	0
20500	0.401480	0
20700	0.409201	0
20900	0.416995	0
21100	0.424864	0
21300	0.432805	0
21500	0.440821	0
21700	0.448909	0
21900	0.457072	0
22100	0.465307	0
22300	0.473617	0
22500	0.482000	0
22700	0.490456	0
22900	0.498986	0
23100	0.507590	0
23300	0.516267	0
23500	0.525018	0
23700	0.533842	0
23900	0.542739	0
24100	0.551711	0
24300	0.560755	0
24500	0.569874	0
24700	0.579066	0
24900	0.588331	0
25100	0.597670	1
25300	0.607083	0
25500	0.616569	0
25700	0.626128	0
25900	0.635761	0
26100	0.645468	4
26300	0.655248	7
26500	0.665102	0
26700	0.675029	0
26900	0.685030	0
27100	0.695104	1
27300	0.705252	0
27500	0.715473	0
27700	0.725768	0
27900	0.736137	0
28100	0.746579	0
28300	0.757094	0
28500	0.767683	0
28700	0.778346	1
28900	0.789082	0
29100	0.799892	0
29300	0.810775	0
29500	0.821732	0
29700	0.832762	0
29900	0.843866	0
30100	0.855044	0
30300	0.866295	0
30500	0.877619	0
30700	0.889017	0
30900	0.900489	1
31100	0.912034	0
31300	0.923652	1
31500	0.935345	5
31700	0.947110	7
31900	0.958950	87
32100	0.970862	205
32300	0.982849	157
32500	0.994909	212
32700	1.007042	4025309
32900	1.019249	8862
33100	1.031530	200
33300	1.043884	102
33500	1.056311	74
33700	1.068812	49
33900	1.081387	43
34100	1.094035	58
34300	1.106757	50
34500	1.119552	58
34700	1.132421	40
34900	1.145363	36
35100	1.158379	27
35300	1.171469	13
35500	1.184632	10
35700	1.197868	12
35900	1.211178	5
36100	1.224562	14
36300	1.238019	9
36500	1.251549	6
36700	1.265154	14
36900	1.278831	5
37100	1.292583	5
37300	1.306407	4
37500	1.320306	2
37700	1.334278	7
37900	1.348323	4
38100	1.362442	3
38300	1.376635	2
38500	1.390901	4
38700	1.405240	4
38900	1.419653	3
39100	1.434140	0
39300	1.448700	0
39500	1.463334	3
39700	1.478041	2
39900	1.492822	2
40100	1.507676	1
40300	1.522604	4
40500	1.537606	2
40700	1.552681	0
40900	1.567829	1
41100	1.583051	1
41300	1.598347	1
41500	1.613716	3
41700	1.629159	0
41900	1.644675	0
42100	1.660265	0
42300	1.675928	2
42500	1.691665	0
42700	1.707475	0
42900	1.723359	3
43100	1.739316	1
43300	1.755347	2
43500	1.771452	2
43700	1.787630	1
43900	1.803882	0
44100	1.820207	0
44300	1.836605	1
44500	1.853078	2
44700	1.869623	1
44900	1.886243	1
45100	1.902935	1
45300	1.919702	0
45500	1.936542	0
45700	1.953455	1
45900	1.970442	1
46100	1.987503	0
46300	2.004637	4
46500	2.021844	476
46700	2.039125	2
46900	2.056480	0
47100	2.073908	1
47300	2.091410	3
47500	2.108985	0
47700	2.126634	1
47900	2.144357	2
48100	2.162152	1
48300	2.180022	0
48500	2.197965	2
48700	2.215981	1
48900	2.234072	1
49100	2.252235	0
49300	2.270472	1
49500	2.288783	3
49700	2.307167	1
49900	2.325625	0
50100	2.344156	1
50300	2.362761	0
50500	2.381439	2
50700	2.400191	0
50900	2.419017	0
51100	2.437916	2
51300	2.456888	1
51500	2.475934	0
51700	2.495054	0
51900	2.514247	1
52100	2.533514	0
52300	2.552854	0
52500	2.572268	2
52700	2.591755	4
52900	2.611316	2
53100	2.630950	0
53300	2.650658	0
53500	2.670440	2
53700	2.690295	0
53900	2.710223	0
54100	2.730225	2
54300	2.750301	1
54500	2.770450	1
54700	2.790673	0
54900	2.810969	2
55100	2.831339	3
55300	2.851782	2
55500	2.872299	0
55700	2.892889	0
55900	2.913553	2
56100	2.934291	1
56300	2.955102	2
56500	2.975986	1
56700	2.996944	1
56900	3.017976	4
57100	3.039081	1
57300	3.060260	2
57500	3.081512	0
57700	3.102838	1
57900	3.124237	0
58100	3.145710	1
58300	3.167256	0
58500	3.188876	0
58700	3.210570	1
58900	3.232337	0
59100	3.254177	3
59300	3.276092	0
59500	3.298079	0
59700	3.320140	3
59900	3.342275	2
60100	3.364483	1
60300	3.386765	0
60500	3.409120	0
60700	3.431549	2
60900	3.454052	0
61100	3.476628	1
61300	3.499277	1
61500	3.522000	0
61700	3.544797	0
61900	3.567667	0
62100	3.590610	2
62300	3.613627	1
62500	3.636718	1
62700	3.659882	0
62900	3.683120	3
63100	3.706432	1
63300	3.729816	0
63500	3.753275	0
63700	3.776807	0
63900	3.800412	1
64100	3.824091	0
64300	3.847844	1
64500	3.871670	1
64700	3.895570	1
64900	3.919543	1
65100	3.943589	0
65300	3.967710	2
65500	3.991903	0
65700	4.016171	0
65900	4.040512	0
66100	4.064926	0
66300	4.089414	0
66500	4.113976	0
66700	4.138611	0
66900	4.163319	0
67100	4.188101	0
67300	4.212957	0
67500	4.237886	0
67700	4.262889	0
67900	4.287965	1
68100	4.313115	1
68300	4.338338	0
68500	4.363635	0
68700	4.389005	0
68900	4.414449	0
69100	4.439967	1
69300	4.465558	0
69500	4.491222	0
69700	4.516961	0
69900	4.542772	0
70100	4.568657	0
70300	4.594616	1
70500	4.620648	0
70700	4.646754	0
70900	4.672934	0
71100	4.699186	0
71300	4.725513	0
71500	4.751913	1
71700	4.778386	0
71900	4.804933	0
72100	4.831554	0
72300	4.858248	1
72500	4.885016	1
72700	4.911857	0
72900	4.938772	0
73100	4.965760	0
73300	4.992822	0
73500	5.019957	0
73700	5.047166	0
73900	5.074448	0
74100	5.101804	0
74300	5.129234	0
74500	5.156737	0
74700	5.184313	0
74900	5.211964	0
75100	5.239687	1
75300	5.267484	0
75500	5.295355	0
75700	5.323299	0
75900	5.351317	1
76100	5.379409	0
76300	5.407573	1
76500	5.435812	0
76700	5.464124	0
76900	5.492509	0
77100	5.520968	0
77300	5.549501	0
77500	5.578107	0
77700	5.606787	0
77900	5.635540	0
78100	5.664367	1
78300	5.693267	0
78500	5.722241	0
78700	5.751288	1
78900	5.780409	0
79100	5.809603	1
79300	5.838871	0
79500	5.868213	0
79700	5.897628	0
79900	5.927117	1
80100	5.956679	0
80300	5.986314	0
80500	6.016024	0
80700	6.045806	0
80900	6.075663	0
81100	6.105592	0
81300	6.135596	0
81500	6.165673	0
81700	6.195823	0
81900	6.226047	0
82100	6.256345	0
82300	6.286716	0
82500	6.317160	1
82700	6.347678	0
82900	6.378270	1
83100	6.408935	0
83300	6.439674	0
83500	6.470486	0
83700	6.501372	0
83900	6.532332	0
84100	6.563364	0
84300	6.594471	0
84500	6.625651	0
84700	6.656904	0
84900	6.688231	0
85100	6.719632	0
85300	6.751106	0
85500	6.782654	0
85700	6.814275	0
85900	6.845970	0
86100	6.877738	0
86300	6.909580	1
86500	6.941495	0
86700	6.973484	0
86900	7.005547	2
87100	7.037683	0
87300	7.069892	0
87500	7.102175	0
87700	7.134532	1
87900	7.166962	1
88100	7.199466	2
88300	7.232043	0
88500	7.264694	1
88700	7.297418	0
88900	7.330216	1
89100	7.363087	1
89300	7.396032	1
89500	7.429051	0
89700	7.462143	0
89900	7.495308	1
90100	7.528547	0
90300	7.561860	3
90500	7.595246	0
90700	7.628706	0
90900	7.662239	1
91100	7.695846	0
91300	7.729526	0
91500	7.763280	0
91700	7.797107	0
91900	7.831008	1
92100	7.864983	0
92300	7.899031	0
92500	7.933152	0
92700	7.967347	0
92900	8.001616	0
93100	8.035958	0
93300	8.070374	0
93500	8.104863	0
93700	8.139426	0
93900	8.174062	0
94100	8.208772	0
94300	8.243555	0
94500	8.278412	0
94700	8.313343	0
94900	8.348347	0
95100	8.383424	0
95300	8.418575	0
95500	8.453800	0
95700	8.489098	0
95900	8.524470	0
96100	8.559915	0
96300	8.595434	0
96500	8.631026	1
96700	8.666692	1
96900	8.702431	0
97100	8.738244	1
97300	8.774131	0
97500	8.810091	0
97700	8.846124	0
97900	8.882231	0
98100	8.918412	1
98300	8.954666	0
98500	8.990994	0
98700	9.027395	0
98900	9.063870	1
99100	9.100418	0
99300	9.137040	0
99500	9.173735	0
99700	9.210504	0
99900	9.247347	1
100100	9.284263	0
100300	9.321252	0
100500	9.358316	0
100700	9.395452	0
100900	9.432662	0
101100	9.469946	0
101300	9.507303	0
101500	9.544734	0
101700	9.582238	0
101900	9.619816	0
102100	9.657468	0
102300	9.695193	1
102500	9.732991	0
102700	9.770863	0
102900	9.808809	0
103100	9.846828	1
103300	9.884920	0
103500	9.923087	0
103700	9.961326	0
103900	9.999640	3
104100	10.038026	1
104300	10.076487	0
104500	10.115021	0
104700	10.153628	0
104900	10.192309	0
105100	10.231063	0
105300	10.269891	1
105500	10.308793	0
105700	10.347768	1
105900	10.386817	0
106100	10.425939	0
106300	10.465135	0
106500	10.504404	1
106700	10.543747	0
106900	10.583163	0
107100	10.622653	1
107300	10.662216	2
107500	10.701853	0
107700	10.741564	2
107900	10.781348	0
108100	10.821205	0
108300	10.861136	0
108500	10.901141	1
108700	10.941219	0
108900	10.981371	2
109100	11.021596	9
109300	11.061895	0
109500	11.102267	0
109700	11.142713	0
109900	11.183233	0
110100	11.223826	2
110300	11.264492	0
110500	11.305232	0
110700	11.346046	1
110900	11.386933	1
111100	11.427894	0
111300	11.468928	1
111500	11.510035	0
111700	11.551217	0
111900	11.592472	1
112100	11.633800	2
112300	11.675202	1
112500	11.716677	0
112700	11.758226	1
112900	11.799849	0
113100	11.841545	9
113300	11.883314	1
113500	11.925157	1
113700	11.967074	192
113900	12.009064	157067
114100	12.051128	22
114300	12.093265	9
114500	12.135476	9
114700	12.177760	10
114900	12.220118	3
115100	12.262550	6
115300	12.305055	7
115500	12.347633	7
115700	12.390285	4
115900	12.433011	12
116100	12.475810	11
116300	12.518683	6
116500	12.561629	6
116700	12.604649	11
116900	12.647742	10
117100	12.690909	7
117300	12.734149	6
117500	12.777463	5
117700	12.820850	11
117900	12.864311	20
118100	12.907846	4
118300	12.951454	8
118500	12.995136	454850
118700	13.038891	911
118900	13.082719	18
119100	13.126622	20
119300	13.170597	19
119500	13.214647	20
119700	13.258769	35
119900	13.302966	10
120100	13.347236	18
120300	13.391579	18
120500	13.435996	16
120700	13.480487	13
120900	13.525051	116
121100	13.569688	21
121300	13.614399	2
121500	13.659184	9
121700	13.704042	4
121900	13.748974	8
122100	13.793979	4
122300	13.839058	7
122500	13.884211	5
122700	13.929436	4
122900	13.974736	10
123100	14.020109	88560
123300	14.065555	39
123500	14.111075	14
123700	14.156669	14
123900	14.202336	17
124100	14.248077	15
124300	14.293891	8
124500	14.339779	8
124700	14.385740	8
124900	14.431775	6
125100	14.477883	9
125300	14.524065	9
125500	14.570321	103
125700	14.616650	51
125900	14.663052	9
126100	14.709528	9
126300	14.756078	1
126500	14.802701	6
126700	14.849398	5
126900	14.896168	3
127100	14.943012	4
127300	14.989929	570
127500	15.036920	49890
127700	15.083984	137
127900	15.131122	33
128100	15.178334	19
128300	15.225619	22
128500	15.272977	13
128700	15.320409	16
128900	15.367915	10
129100	15.415494	8
129300	15.463147	9
129500	15.510873	7
129700	15.558673	8
129900	15.606546	5
130100	15.654493	71
130300	15.702513	7
130500	15.750607	4
130700	15.798775	10
130900	15.847016	27
131100	15.895330	7
131300	15.943718	85
131500	15.992180	545960
131700	16.040715	1352
131900	16.089324	11
132100	16.138006	7
132300	16.186762	17
132500	16.235591	4
132700	16.284494	9
132900	16.333470	8
133100	16.382520	9
133300	16.431644	16
133500	16.480841	9
133700	16.530111	8
133900	16.579455	9
134100	16.628873	5
134300	16.678364	11
134500	16.727929	8
134700	16.777567	3
134900	16.827279	28
135100	16.877064	8
135300	16.926923	3
135500	16.976855	62907
135700	17.026861	470452
135900	17.076941	143
136100	17.127094	38
136300	17.177320	33
136500	17.227620	24
136700	17.277994	19
136900	17.328441	19
137100	17.378962	12
137300	17.429556	14
137500	17.480224	14
137700	17.530965	14
137900	17.581780	10
138100	17.632668	10
138300	17.683630	142
138500	17.734666	39
138700	17.785775	7
138900	17.836957	9
139100	17.888214	3
139300	17.939543	5
139500	17.990946	1346
139700	18.042423	12
139900	18.093973	3
140100	18.145597	5
140300	18.197294	12
140500	18.249065	4
140700	18.300910	4
140900	18.352828	6
141100	18.404819	5
141300	18.456884	6
141500	18.509023	3
141700	18.561235	2
141900	18.613520	3
142100	18.665880	7
142300	18.718312	6
142500	18.770819	2
142700	18.823398	9
142900	18.876052	2
143100	18.928779	6
143300	18.981579	216747
143500	19.034453	2574
143700	19.087400	72
143900	19.140421	22
144100	19.193516	7
144300	19.246684	6
144500	19.299926	2
144700	19.353241	1
144900	19.406630	5
145100	19.460092	5
145300	19.513628	6
145500	19.567237	3
145700	19.620920	4
145900	19.674676	6
146100	19.728506	3
146300	19.782410	2
146500	19.836387	2
146700	19.890437	0
146900	19.944561	1
147100	19.998759	1
147300	20.053030	4
147500	20.107375	4
147700	20.161793	1
147900	20.216285	0
148100	20.270850	1
148300	20.325489	0
148500	20.380202	3
148700	20.434988	5
148900	20.489847	3
149100	20.544780	0
149300	20.599787	0
149500	20.654867	2
149700	20.710021	5
149900	20.765248	1
150100	20.820549	1
150300	20.875923	1
150500	20.931371	2
150700	20.986892	9
150900	21.042487	3
151100	21.098155	4
151300	21.153897	1
151500	21.209713	1
151700	21.265602	3
151900	21.321564	1
152100	21.377600	2
152300	21.433710	4
152500	21.489893	2
152700	21.546150	0
152900	21.602480	1
153100	21.658884	0
153300	21.715362	1
153500	21.771912	0
153700	21.828537	1
153900	21.885235	0
154100	21.942006	1
154300	21.998851	5
154500	22.055770	1
154700	22.112762	0
154900	22.169828	1
155100	22.226967	1
155300	22.284180	2
155500	22.341466	1
155700	22.398826	1
155900	22.456259	2
156100	22.513766	3
156300	22.571346	0
156500	22.629000	6
156700	22.686728	0
156900	22.744529	0
157100	22.802404	2
157300	22.860352	0
157500	22.918373	2
157700	22.976469	1992
157900	23.034637	237
158100	23.092880	20
158300	23.151195	3
158500	23.209585	6
158700	23.268048	4
158900	23.326584	2
159100	23.385194	0
159300	23.443878	2
159500	23.502635	1
159700	23.561465	6
159900	23.620369	5
160100	23.679347	3
160300	23.738398	2
160500	23.797523	18
160700	23.856721	2
160900	23.915993	47
161100	23.975339	301134
161300	24.034757	18651
161500	24.094250	59
161700	24.153816	34
161900	24.213455	27
162100	24.273169	19
162300	24.332955	14
162500	24.392815	34
162700	24.452749	24
162900	24.512756	18
163100	24.572837	24
163300	24.632991	26
163500	24.693219	19
163700	24.753520	24
163900	24.813895	105
164100	24.874344	21
164300	24.934866	31
164500	24.995461	1270177
164700	25.056130	4854
164900	25.116873	364
165100	25.177689	162
165300	25.238579	93
165500	25.299542	66
165700	25.360579	60
165900	25.421689	44
166100	25.482873	35
166300	25.544130	40
166500	25.605461	36
166700	25.666866	27
166900	25.728344	15
167100	25.789895	69
167300	25.851520	20
167500	25.913219	19
167700	25.974991	440832
167900	26.036837	250220
168100	26.098756	5493
168300	26.160749	2506
168500	26.222815	1358
168700	26.284955	855
168900	26.347168	491
169100	26.409455	359
169300	26.471816	262
169500	26.534250	189
169700	26.596757	148
169900	26.659338	102
170100	26.721993	76
170300	26.784721	81
170500	26.847523	53
170700	26.910398	44
170900	26.973347	5096
171100	27.036369	51011
171300	27.099465	221
171500	27.162634	85
171700	27.225877	58
171900	27.289194	39
172100	27.352584	26
172300	27.416047	23
172500	27.479584	19
172700	27.543195	18
172900	27.606879	20
173100	27.670637	17
173300	27.734468	10
173500	27.798373	15
173700	27.862351	11
173900	27.926403	9
174100	27.990528	737
174300	28.054727	929
174500	28.119000	13
174700	28.183346	7
174900	28.247765	7
175100	28.312258	3
175300	28.376825	6
175500	28.441465	3
175700	28.506179	4
175900	28.570966	7
176100	28.635827	4
176300	28.700761	4
176500	28.765769	2
176700	28.830851	7
176900	28.896006	2
177100	28.961234	704
177300	29.026536	4431
177500	29.091912	25
177700	29.157361	6
177900	29.222883	4
178100	29.288479	8
178300	29.354149	5
178500	29.419892	5
178700	29.485709	4
178900	29.551600	7
179100	29.617563	6
179300	29.683601	8
179500	29.749712	11
179700	29.815896	5
179900	29.882154	1
180100	29.948486	16
180300	30.014891	499
180500	30.081370	5
180700	30.147922	7
180900	30.214547	5
181100	30.281247	3
181300	30.348020	3
181500	30.414866	4
181700	30.481786	6
181900	30.548779	4
182100	30.615846	4
182300	30.682987	8
182500	30.750201	1
182700	30.817488	3
182900	30.884849	4
183100	30.952284	56
183300	31.019792	4372
183500	31.087374	47
183700	31.155029	9
183900	31.222758	8
184100	31.290560	2
184300	31.358436	1
184500	31.426385	2
184700	31.494408	1
184900	31.562505	3
185100	31.630675	3
185300	31.698919	4
185500	31.767236	5
185700	31.835626	3
185900	31.904090	7
186100	31.972628	18891
186300	32.041239	224
186500	32.109924	12
186700	32.178683	11
186900	32.247515	14
187100	32.316420	2
187300	32.385399	4
187500	32.454451	4
187700	32.523577	2
187900	32.592777	3
188100	32.662050	3
188300	32.731397	8
188500	32.800817	4
188700	32.870311	4
188900	32.939878	145
189100	33.009519	11488
189300	33.079233	18
189500	33.149021	12
189700	33.218882	8
189900	33.288817	9
190100	33.358826	4
190300	33.428908	5
190500	33.499064	2
190700	33.569293	3
190900	33.639595	11
191100	33.709972	8
191300	33.780421	6
191500	33.850945	4
191700	33.921541	3
191900	33.992212	602
192100	34.062956	15
192300	34.133773	5
192500	34.204664	2
192700	34.275629	4
192900	34.346667	3
193100	34.417778	6
193300	34.488963	4
193500	34.560222	15
193700	34.631554	2
193900	34.702960	303
194100	34.774439	46
194300	34.845992	34
194500	34.917618	1298
194700	34.989318	3254414
194900	35.061092	2957
195100	35.132939	2380
195300	35.204859	2306
195500	35.276853	1823
195700	35.348921	1259
195900	35.421062	807
196100	35.493277	559
196300	35.565565	427
196500	35.637927	324
196700	35.710362	258
196900	35.782871	182
197100	35.855453	142
197300	35.928109	139
197500	36.000838	72067
197700	36.073641	123
197900	36.146518	102
198100	36.219468	81
198300	36.292492	68
198500	36.365589	67
198700	36.438759	62
198900	36.512004	51
199100	36.585321	32
199300	36.658713	35
199500	36.732177	108
199700	36.805716	24
199900	36.879328	106
200100	36.953013	1592542
200300	37.026772	88897
200500	37.100605	3203
200700	37.174511	1753
200900	37.248490	982
201100	37.322543	585
201300	37.396670	339
201500	37.470870	272
201700	37.545144	145
201900	37.619491	137
202100	37.693912	106
202300	37.768407	85
202500	37.842975	49
202700	37.917616	63
202900	37.992331	56407
203100	38.067120	1088
203300	38.141982	51
203500	38.216917	41
203700	38.291926	38
203900	38.367009	27
204100	38.442165	22
204300	38.517395	63
204500	38.592698	31
204700	38.668075	21
204900	38.743526	14
205100	38.819049	13
205300	38.894647	15
205500	38.970318	2055
