# Binning: 200 channels
# Deadtime Correction: on
Channel	m/z	Intensity
100	0.000336	0
300	0.000595	7
500	0.000928	0
700	0.001334	0
900	0.001813	0
1100	0.002366	0
1300	0.002993	4
1500	0.003693	2
1700	0.004467	1
1900	0.005315	0
2100	0.006235	0
2300	0.007230	0
2500	0.008298	0
2700	0.009439	0
2900	0.010654	2
3100	0.011943	0
3300	0.013305	0
3500	0.014740	0
3700	0.016249	0
3900	0.017832	0
4100	0.019488	0
4300	0.021218	0
4500	0.023021	0
4700	0.024898	0
4900	0.026848	0
5100	0.028872	0
5300	0.030970	0
5500	0.033140	0
5700	0.035385	0
5900	0.037703	0
6100	0.040094	0
6300	0.042559	0
6500	0.045098	0
6700	0.047710	0
6900	0.050396	0
7100	0.053155	0
7300	0.055988	0
7500	0.058894	1
7700	0.061874	0
7900	0.064927	0
8100	0.068054	0
8300	0.071254	0
8500	0.074528	0
8700	0.077876	0
8900	0.081297	1
9100	0.084791	0
9300	0.088359	0
9500	0.092001	0
9700	0.095716	0
9900	0.099505	0
10100	0.103367	0
10300	0.107303	0
10500	0.111312	0
10700	0.115395	0
10900	0.119551	0
11100	0.123781	0
11300	0.128084	0
11500	0.132461	0
11700	0.136912	0
11900	0.141436	0
12100	0.146033	0
12300	0.150705	0
12500	0.155449	0
12700	0.160267	0
12900	0.165159	0
13100	0.170124	0
13300	0.175163	0
13500	0.180275	0
13700	0.185461	0
13900	0.190720	0
14100	0.196053	0
14300	0.201460	0
14500	0.206940	0
14700	0.212493	0
14900	0.218120	0
15100	0.223821	0
15300	0.229595	0
15500	0.235442	0
15700	0.241364	0
15900	0.247358	0
16100	0.253426	0
16300	0.259568	0
16500	0.265783	0
16700	0.272072	0
16900	0.278435	0
17100	0.284871	0
17300	0.291380	0
17500	0.297963	0
17700	0.304619	0
17900	0.311349	0
18100	0.318153	0
18300	0.325030	0
18500	0.331981	0
18700	0.339005	0
18900	0.346103	0
19100	0.353274	0
19300	0.360519	1
19500	0.367837	0
19700	0.375229	0
19900	0.382694	0
20100	0.390233	0
20300	0.397845	0
20500	0.405531	0
20700	0.413291	0
20900	0.421124	0
21100	0.429030	0
21300	0.437011	0
21500	0.445064	0
21700	0.453191	0
21900	0.461392	0
22100	0.469666	0
22300	0.478014	0
22500	0.486435	0
22700	0.494930	0
22900	0.503499	0
23100	0.512140	0
23300	0.520856	0
23500	0.529645	0
23700	0.538507	0
23900	0.547443	0
24100	0.556453	0
24300	0.565536	0
24500	0.574693	0
24700	0.583923	0
24900	0.593227	0
25100	0.602604	0
25300	0.612055	0
25500	0.621579	0
25700	0.631177	0
25900	0.640848	0
26100	0.650593	0
26300	0.660412	0
26500	0.670304	0
26700	0.680269	0
26900	0.690308	0
27100	0.700421	0
27300	0.710607	0
27500	0.720867	0
27700	0.731200	0
27900	0.741606	0
28100	0.752087	0
28300	0.762640	0
28500	0.773268	1
28700	0.783969	0
28900	0.794743	0
29100	0.805591	0
29300	0.816512	0
29500	0.827507	0
29700	0.838576	0
29900	0.849718	0
30100	0.860934	0
30300	0.872223	0
30500	0.883585	0
30700	0.895022	0
30900	0.906531	2
31100	0.918115	119
31300	0.929771	3
31500	0.941502	18
31700	0.953306	5
31900	0.965183	7
32100	0.977134	22
32300	0.989158	141
32500	1.001256	3538
32700	1.013428	573760
32900	1.025673	232
33100	1.037992	59
33300	1.050384	31
33500	1.062849	28
33700	1.075389	21
33900	1.088001	14
34100	1.100688	9
34300	1.113447	7
34500	1.126281	8
34700	1.139188	4
34900	1.152168	6
35100	1.165222	2
35300	1.178349	2
35500	1.191550	0
35700	1.204825	2
35900	1.218173	1
36100	1.231595	3
36300	1.245090	2
36500	1.258658	4
36700	1.272301	3
36900	1.286016	0
37100	1.299806	2
37300	1.313669	3
37500	1.327605	5
37700	1.341615	1
37900	1.355698	5
38100	1.369855	0
38300	1.384086	0
38500	1.398390	1
38700	1.412767	0
38900	1.427218	1
39100	1.441743	1
39300	1.456341	0
39500	1.471013	1
39700	1.485758	1
39900	1.500577	0
40100	1.515469	0
40300	1.530435	1
40500	1.545474	0
40700	1.560587	3
40900	1.575774	1
41100	1.591033	0
41300	1.606367	0
41500	1.621774	0
41700	1.637255	3
41900	1.652809	2
42100	1.668436	0
42300	1.684137	0
42500	1.699912	0
42700	1.715760	0
42900	1.731682	0
43100	1.747677	0
43300	1.763746	1
43500	1.779889	0
43700	1.796105	0
43900	1.812394	1
44100	1.828757	0
44300	1.845193	1
44500	1.861703	0
44700	1.878287	1
44900	1.894944	1
45100	1.911675	0
45300	1.928479	1
45500	1.945357	0
45700	1.962308	0
45900	1.979333	1
46100	1.996431	1
46300	2.013603	62
46500	2.030848	0
46700	2.048167	0
46900	2.065560	2
47100	2.083025	0
47300	2.100565	1
47500	2.118178	0
47700	2.135865	0
47900	2.153625	0
48100	2.171458	1
48300	2.189366	0
48500	2.207346	0
48700	2.225401	0
48900	2.243528	0
49100	2.261730	1
49300	2.280004	1
49500	2.298353	1
49700	2.316775	0
49900	2.335270	0
50100	2.353839	0
50300	2.372482	1
50500	2.391198	1
50700	2.409987	1
50900	2.428850	2
51100	2.447787	0
51300	2.466797	0
51500	2.485881	0
51700	2.505038	1
51900	2.524269	1
52100	2.543573	1
52300	2.562951	0
52500	2.582403	0
52700	2.601928	0
52900	2.621526	0
53100	2.641198	0
53300	2.660944	0
53500	2.680763	2
53700	2.700655	0
53900	2.720621	0
54100	2.740661	2
54300	2.760774	0
54500	2.780961	0
54700	2.801221	0
54900	2.821555	0
55100	2.841962	0
55300	2.862443	0
55500	2.882998	0
55700	2.903626	0
55900	2.924327	0
56100	2.945102	0
56300	2.965951	0
56500	2.986873	1
56700	3.007868	0
56900	3.028937	0
57100	3.050080	0
57300	3.071296	0
57500	3.092586	0
57700	3.113949	0
57900	3.135386	0
58100	3.156896	0
58300	3.178480	0
58500	3.200138	1
58700	3.221869	1
58900	3.243673	0
59100	3.265551	0
59300	3.287503	1
59500	3.309528	0
59700	3.331626	0
59900	3.353798	0
60100	3.376044	1
60300	3.398363	0
60500	3.420756	0
60700	3.443222	1
60900	3.465762	0
61100	3.488376	0
61300	3.511062	0
61500	3.533823	0
61700	3.556657	0
61900	3.579564	0
62100	3.602545	0
62300	3.625600	0
62500	3.648728	1
62700	3.671930	1
62900	3.695205	1
63100	3.718553	1
63300	3.741976	0
63500	3.765471	0
63700	3.789041	0
63900	3.812683	0
64100	3.836400	0
64300	3.860190	0
64500	3.884053	0
64700	3.907990	0
64900	3.932001	0
65100	3.956085	0
65300	3.980242	0
65500	4.004473	1
65700	4.028778	0
65900	4.053156	1
66100	4.077608	0
66300	4.102133	0
66500	4.126732	0
66700	4.151404	0
66900	4.176150	0
67100	4.200969	0
67300	4.225862	0
67500	4.250829	0
67700	4.275869	0
67900	4.300982	0
68100	4.326169	0
68300	4.351430	0
68500	4.376764	0
68700	4.402171	0
68900	4.427653	0
69100	4.453207	0
69300	4.478836	0
69500	4.504537	0
69700	4.530313	0
69900	4.556161	0
70100	4.582084	0
70300	4.608080	1
70500	4.634149	0
70700	4.660292	0
70900	4.686509	0
71100	4.712799	0
71300	4.739162	0
71500	4.765599	0
71700	4.792110	0
71900	4.818694	0
72100	4.845352	1
72300	4.872083	1
72500	4.898888	0
72700	4.925766	0
72900	4.952718	1
73100	4.979744	0
73300	5.006842	0
73500	5.034015	0
73700	5.061261	0
73900	5.088580	0
74100	5.115973	0
74300	5.143440	0
74500	5.170980	0
74700	5.198594	0
74900	5.226281	1
75100	5.254042	0
75300	5.281876	0
75500	5.309784	0
75700	5.337765	0
75900	5.365820	1
76100	5.393948	0
76300	5.422150	1
76500	5.450426	0
76700	5.478775	0
76900	5.507197	1
77100	5.535693	0
77300	5.564263	0
77500	5.592906	0
77700	5.621623	0
77900	5.650413	1
78100	5.679277	0
78300	5.708214	0
78500	5.737225	0
78700	5.766309	0
78900	5.795467	0
79100	5.824698	0
79300	5.854003	0
79500	5.883382	0
79700	5.912834	0
79900	5.942359	0
80100	5.971958	0
80300	6.001631	0
80500	6.031377	0
80700	6.061197	0
80900	6.091090	0
81100	6.121057	0
81300	6.151097	0
81500	6.181211	0
81700	6.211398	0
81900	6.241659	0
82100	6.271993	0
82300	6.302401	0
82500	6.332883	0
82700	6.363438	0
82900	6.394066	0
83100	6.424768	0
83300	6.455544	0
83500	6.486393	0
83700	6.517316	0
83900	6.548312	0
84100	6.579382	0
84300	6.610525	0
84500	6.641742	0
84700	6.673032	0
84900	6.704396	0
85100	6.735834	0
85300	6.767345	0
85500	6.798929	0
85700	6.830587	0
85900	6.862319	0
86100	6.894124	0
86300	6.926002	0
86500	6.957954	0
86700	6.989980	0
86900	7.022079	0
87100	7.054252	0
87300	7.086498	1
87500	7.118818	0
87700	7.151212	0
87900	7.183679	0
88100	7.216219	0
88300	7.248833	0
88500	7.281520	0
88700	7.314281	0
88900	7.347116	0
89100	7.380024	0
89300	7.413006	0
89500	7.446061	0
89700	7.479190	0
89900	7.512392	0
90100	7.545668	0
90300	7.579017	0
90500	7.612440	0
90700	7.645936	0
90900	7.679506	0
91100	7.713149	0
91300	7.746866	0
91500	7.780657	0
91700	7.814521	0
91900	7.848458	0
92100	7.882470	0
92300	7.916554	0
92500	7.950712	0
92700	7.984944	0
92900	8.019249	0
93100	8.053628	0
93300	8.088080	0
93500	8.122606	0
93700	8.157206	0
93900	8.191879	0
94100	8.226625	0
94300	8.261445	0
94500	8.296338	0
94700	8.331306	0
94900	8.366346	0
95100	8.401460	0
95300	8.436648	0
95500	8.471909	0
95700	8.507244	0
95900	8.542652	0
96100	8.578134	0
96300	8.613689	0
96500	8.649318	0
96700	8.685020	0
96900	8.720796	0
97100	8.756646	0
97300	8.792569	0
97500	8.828565	0
97700	8.864635	0
97900	8.900779	0
98100	8.936996	0
98300	8.973287	0
98500	9.009651	0
98700	9.046089	1
98900	9.082600	0
99100	9.119185	0
99300	9.155843	0
99500	9.192575	0
99700	9.229380	0
99900	9.266259	0
100100	9.303212	0
100300	9.340238	0
100500	9.377337	0
100700	9.414510	0
100900	9.451757	0
101100	9.489077	0
101300	9.526471	0
101500	9.563938	0
101700	9.601478	0
101900	9.639093	0
102100	9.676781	0
102300	9.714542	0
102500	9.752377	0
102700	9.790285	0
102900	9.828267	0
103100	9.866323	0
103300	9.904452	0
103500	9.942654	0
103700	9.980930	0
103900	10.019280	0
104100	10.057703	0
104300	10.096200	0
104500	10.134770	0
104700	10.173414	0
104900	10.212131	0
105100	10.250922	0
105300	10.289786	0
105500	10.328724	0
105700	10.367735	0
105900	10.406820	0
106100	10.445979	0
106300	10.485211	0
106500	10.524516	0
106700	10.563895	0
106900	10.603348	0
107100	10.642874	0
107300	10.682474	0
107500	10.722147	1
107700	10.761894	0
107900	10.801714	0
108100	10.841608	0
108300	10.881575	0
108500	10.921616	0
108700	10.961730	0
108900	11.001918	3
109100	11.042180	0
109300	11.082515	0
109500	11.122923	0
109700	11.163406	1
109900	11.203961	0
110100	11.244590	0
110300	11.285293	0
110500	11.326069	0
110700	11.366919	1
110900	11.407842	0
111100	11.448839	1
111300	11.489910	0
111500	11.531053	0
111700	11.572271	0
111900	11.613562	2
112100	11.654926	0
112300	11.696364	1
112500	11.737876	2
112700	11.779461	0
112900	11.821120	0
113100	11.862852	0
113300	11.904657	0
113500	11.946537	4
113700	11.988489	15102
113900	12.030516	103
114100	12.072616	5
114300	12.114789	0
114500	12.157036	3
114700	12.199356	0
114900	12.241750	0
115100	12.284218	1
115300	12.326759	0
115500	12.369373	0
115700	12.412062	0
115900	12.454823	2
116100	12.497658	0
116300	12.540567	0
116500	12.583549	3
116700	12.626605	1
116900	12.669734	9
117100	12.712937	1
117300	12.756214	1
117500	12.799563	4
117700	12.842987	1
117900	12.886484	0
118100	12.930054	8
118300	12.973698	61
118500	13.017416	44449
118700	13.061207	13
118900	13.105072	5
119100	13.149010	2
119300	13.193022	4
119500	13.237107	2
119700	13.281266	2
119900	13.325498	3
120100	13.369804	3
120300	13.414183	0
120500	13.458636	1
120700	13.503163	1
120900	13.547763	9
121100	13.592436	0
121300	13.637183	2
121500	13.682004	9
121700	13.726898	0
121900	13.771866	2
122100	13.816907	0
122300	13.862022	0
122500	13.907210	2
122700	13.952472	12
122900	13.997807	9474
123100	14.043216	664
123300	14.088698	3
123500	14.134254	3
123700	14.179884	0
123900	14.225587	2
124100	14.271363	0
124300	14.317213	1
124500	14.363137	1
124700	14.409134	1
124900	14.455205	0
125100	14.501349	0
125300	14.547566	4
125500	14.593858	19
125700	14.640223	1
125900	14.686661	2
126100	14.733173	1
126300	14.779758	0
126500	14.826417	0
126700	14.873150	2
126900	14.919956	1
127100	14.966835	1
127300	15.013788	7240
127500	15.060815	95
127700	15.107915	8
127900	15.155089	2
128100	15.202336	3
128300	15.249657	3
128500	15.297051	2
128700	15.344519	0
128900	15.392060	1
129100	15.439675	0
129300	15.487363	1
129500	15.535125	1
129700	15.582961	1
129900	15.630870	15
130100	15.678852	3
130300	15.726908	1
130500	15.775038	2
130700	15.823241	4
130900	15.871518	2
131100	15.919868	11
131300	15.968292	2765
131500	16.016789	57582
131700	16.065360	10
131900	16.114004	4
132100	16.162722	2
132300	16.211513	2
132500	16.260378	0
132700	16.309317	2
132900	16.358329	0
133100	16.407414	3
133300	16.456574	2
133500	16.505806	3
133700	16.555112	2
133900	16.604492	6
134100	16.653945	14
134300	16.703472	1
134500	16.753072	4
134700	16.802746	0
134900	16.852494	0
135100	16.902314	10
135300	16.952209	26
135500	17.002177	68094
135700	17.052218	163
135900	17.102333	18
136100	17.152522	2
136300	17.202784	8
136500	17.253120	7
136700	17.303529	6
136900	17.354011	1
137100	17.404568	2
137300	17.455197	2
137500	17.505901	0
137700	17.556678	2
137900	17.607528	2
138100	17.658452	0
138300	17.709449	13
138500	17.760520	3
138700	17.811665	0
138900	17.862883	3
139100	17.914174	1
139300	17.965540	0
139500	18.016978	159
139700	18.068490	0
139900	18.120076	0
140100	18.171735	1
140300	18.223468	1
140500	18.275274	1
140700	18.327154	0
140900	18.379108	1
141100	18.431135	2
141300	18.483235	1
141500	18.535409	0
141700	18.587656	6
141900	18.639977	2
142100	18.692372	2
142300	18.744840	2
142500	18.797382	2
142700	18.849997	1
142900	18.902686	4
143100	18.955448	40
143300	19.008284	33460
143500	19.061193	38
143700	19.114176	11
143900	19.167232	2
144100	19.220362	0
144300	19.273566	0
144500	19.326843	3
144700	19.380193	2
144900	19.433617	2
145100	19.487115	0
145300	19.540686	1
145500	19.594331	1
145700	19.648049	0
145900	19.701841	1
146100	19.755706	1
146300	19.809645	1
146500	19.863657	1
146700	19.917743	1
146900	19.971902	0
147100	20.026135	0
147300	20.080442	1
147500	20.134822	0
147700	20.189275	1
147900	20.243802	0
148100	20.298403	1
148300	20.353077	0
148500	20.407825	0
148700	20.462646	0
148900	20.517541	0
149100	20.572509	0
149300	20.627551	0
149500	20.682666	0
149700	20.737855	1
149900	20.793117	1
150100	20.848453	0
150300	20.903863	1
150500	20.959346	1
150700	21.014902	1
150900	21.070532	0
151100	21.126236	0
151300	21.182013	0
151500	21.237864	1
151700	21.293788	0
151900	21.349786	0
152100	21.405857	1
152300	21.462002	0
152500	21.518220	1
152700	21.574512	0
152900	21.630877	0
153100	21.687316	1
153300	21.743829	0
153500	21.800415	0
153700	21.857074	0
153900	21.913807	0
154100	21.970614	0
154300	22.027494	0
154500	22.084448	0
154700	22.141475	0
154900	22.198576	2
155100	22.255750	0
155300	22.312998	1
155500	22.370319	0
155700	22.427714	0
155900	22.485183	0
156100	22.542725	0
156300	22.600340	0
156500	22.658029	1
156700	22.715792	0
156900	22.773628	0
157100	22.831537	0
157300	22.889520	0
157500	22.947577	1
157700	23.005707	299
157900	23.063911	8
158100	23.122188	3
158300	23.180539	1
158500	23.238964	0
158700	23.297462	0
158900	23.356033	0
159100	23.414678	0
159300	23.473396	0
159500	23.532188	2
159700	23.591054	4
159900	23.649993	0
160100	23.709006	1
160300	23.768092	0
160500	23.827252	0
160700	23.886485	7
160900	23.945792	99
161100	24.005172	38139
161300	24.064626	46
161500	24.124153	5
161700	24.183754	3
161900	24.243428	3
162100	24.303176	4
162300	24.362998	3
162500	24.422893	5
162700	24.482862	2
162900	24.542904	30
163100	24.603019	3
163300	24.663208	2
163500	24.723471	2
163700	24.783807	2
163900	24.844217	4
164100	24.904701	25
164300	24.965257	517
164500	25.025888	194924
164700	25.086592	192
164900	25.147369	61
165100	25.208220	22
165300	25.269145	21
165500	25.330143	10
165700	25.391214	11
165900	25.452359	10
166100	25.513578	11
166300	25.574870	9
166500	25.636236	5
166700	25.697675	6
166900	25.759188	3
167100	25.820774	3
167300	25.882434	18
167500	25.944167	59
167700	26.005974	113765
167900	26.067855	2010
168100	26.129809	533
168300	26.191836	258
168500	26.253937	111
168700	26.316112	63
168900	26.378360	42
169100	26.440682	25
169300	26.503077	26
169500	26.565546	23
169700	26.628088	17
169900	26.690704	7
170100	26.753393	5
170300	26.816156	10
170500	26.878992	5
170700	26.941902	6
170900	27.004886	10084
171100	27.067943	263
171300	27.131073	19
171500	27.194277	11
171700	27.257555	8
171900	27.320906	5
172100	27.384331	3
172300	27.447829	4
172500	27.511401	1
172700	27.575046	2
172900	27.638765	2
173100	27.702557	0
173300	27.766423	0
173500	27.830362	3
173700	27.894375	4
173900	27.958462	38
174100	28.022622	235
174300	28.086855	1
174500	28.151162	2
174700	28.215543	0
174900	28.279997	1
175100	28.344525	1
175300	28.409126	1
175500	28.473801	0
175700	28.538549	0
175900	28.603371	3
176100	28.668266	1
176300	28.733235	0
176500	28.798278	1
176700	28.863393	1
176900	28.928583	13
177100	28.993846	811
177300	29.059183	14
177500	29.124593	1
177700	29.190076	1
177900	29.255633	2
178100	29.321264	0
178300	29.386968	0
178500	29.452746	1
178700	29.518597	1
178900	29.584522	0
179100	29.650520	0
179300	29.716592	1
179500	29.782738	1
179700	29.848957	1
179900	29.915249	1
180100	29.981615	67
180300	30.048055	4
180500	30.114568	0
180700	30.181155	1
180900	30.247815	2
181100	30.314548	0
181300	30.381356	0
181500	30.448236	0
181700	30.515191	0
181900	30.582218	2
182100	30.649320	2
182300	30.716495	0
182500	30.783743	0
182700	30.851065	0
182900	30.918461	0
183100	30.985930	406
183300	31.053472	380
183500	31.121088	2
183700	31.188778	0
183900	31.256541	1
184100	31.324378	0
184300	31.392288	0
184500	31.460272	0
184700	31.528329	0
184900	31.596460	1
185100	31.664664	0
185300	31.732942	0
185500	31.801294	0
185700	31.869719	0
185900	31.938217	352
186100	32.006789	2181
186300	32.075435	0
186500	32.144154	2
186700	32.212947	0
186900	32.281813	2
187100	32.350752	1
187300	32.419766	1
187500	32.488852	2
187700	32.558013	0
187900	32.627247	1
188100	32.696554	2
188300	32.765935	2
188500	32.835389	0
188700	32.904917	1
188900	32.974519	1479
189100	33.044194	20
189300	33.113942	2
189500	33.183765	2
189700	33.253660	6
189900	33.323629	1
190100	33.393672	3
190300	33.463788	2
190500	33.533978	0
190700	33.604242	0
190900	33.674578	0
191100	33.744989	0
191300	33.815473	2
191500	33.886030	0
191700	33.956661	49
191900	34.027366	25
192100	34.098144	0
192300	34.168995	2
192500	34.239920	2
192700	34.310919	4
192900	34.381991	1
193100	34.453137	163
193300	34.524356	11
193500	34.595649	21
193700	34.667015	2
193900	34.738455	2
194100	34.809969	55
194300	34.881556	187
194500	34.953216	654410
194700	35.024950	19147
194900	35.096758	2312
195100	35.168639	1098
195300	35.240593	586
195500	35.312621	307
195700	35.384723	183
195900	35.456898	131
196100	35.529147	91
196300	35.601469	53
196500	35.673865	44
196700	35.746334	32
196900	35.818877	29
197100	35.891494	24
197300	35.964184	6643
197500	36.036947	6678
197700	36.109784	26
197900	36.182695	17
198100	36.255679	11
198300	36.328736	14
198500	36.401867	56
198700	36.475072	10
198900	36.548350	9
199100	36.621702	11
199300	36.695127	7
199500	36.768626	4
199700	36.842199	42
199900	36.915844	661
200100	36.989564	241444
200300	37.063357	1820
200500	37.137223	534
200700	37.211163	276
200900	37.285177	130
201100	37.359264	93
201300	37.433425	41
201500	37.507659	42
201700	37.581966	27
201900	37.656348	17
202100	37.730802	10
202300	37.805331	5
202500	37.879932	11
202700	37.954608	69
202900	38.029357	9976
203100	38.104179	12
203300	38.179075	6
203500	38.254045	5
203700	38.329088	6
203900	38.404204	5
204100	38.479394	3
204300	38.554658	11
204500	38.629995	2
204700	38.705406	3
204900	38.780890	3
205100	38.856448	1
205300	38.932079	10
205500	39.007784	5299
205700	39.083562	98
205900	39.159414	9
206100	39.235340	6
206300	39.311338	2
206500	39.387411	2
206700	39.463557	5
206900	39.539777	13
207100	39.616070	12
207300	39.692436	3
