# Binning: 200 channels
# Deadtime Correction: on
Channel	m/z	Intensity
100	0.000412	4
300	0.000695	4
500	0.001052	0
700	0.001482	0
900	0.001986	0
1100	0.002563	0
1300	0.003214	1
1500	0.003938	0
1700	0.004736	0
1900	0.005607	0
2100	0.006552	0
2300	0.007571	0
2500	0.008663	0
2700	0.009828	0
2900	0.011067	0
3100	0.012380	0
3300	0.013766	0
3500	0.015226	0
3700	0.016760	0
3900	0.018366	0
4100	0.020047	0
4300	0.021801	0
4500	0.023628	0
4700	0.025529	0
4900	0.027504	0
5100	0.029552	0
5300	0.031674	0
5500	0.033869	0
5700	0.036138	0
5900	0.038480	0
6100	0.040896	0
6300	0.043386	0
6500	0.045949	0
6700	0.048585	0
6900	0.051295	0
7100	0.054079	0
7300	0.056936	0
7500	0.059867	0
7700	0.062871	0
7900	0.065949	0
8100	0.069100	0
8300	0.072325	0
8500	0.075624	0
8700	0.078996	0
8900	0.082441	0
9100	0.085960	0
9300	0.089553	0
9500	0.093219	0
9700	0.096959	0
9900	0.100772	0
10100	0.104659	0
10300	0.108619	0
10500	0.112653	0
10700	0.116761	0
10900	0.120942	0
11100	0.125196	0
11300	0.129524	0
11500	0.133926	0
11700	0.138401	0
11900	0.142950	0
12100	0.147572	0
12300	0.152268	0
12500	0.157037	0
12700	0.161880	0
12900	0.166797	0
13100	0.171787	0
13300	0.176851	0
13500	0.181988	0
13700	0.187198	0
13900	0.192483	0
14100	0.197840	0
14300	0.203272	0
14500	0.208777	0
14700	0.214355	0
14900	0.220007	0
15100	0.225732	0
15300	0.231531	0
15500	0.237404	0
15700	0.243350	0
15900	0.249370	0
16100	0.255463	0
16300	0.261630	0
16500	0.267870	0
16700	0.274184	0
16900	0.280572	0
17100	0.287032	0
17300	0.293567	0
17500	0.300175	0
17700	0.306857	0
17900	0.313612	0
18100	0.320441	0
18300	0.327343	0
18500	0.334319	0
18700	0.341368	0
18900	0.348491	0
19100	0.355687	0
19300	0.362957	0
19500	0.370301	0
19700	0.377718	0
19900	0.385209	0
20100	0.392773	0
20300	0.400410	0
20500	0.408122	0
20700	0.415907	0
20900	0.423765	0
21100	0.431697	1
21300	0.439702	0
21500	0.447781	0
21700	0.455934	0
21900	0.464160	0
22100	0.472460	0
22300	0.480833	0
22500	0.489279	0
22700	0.497800	0
22900	0.506394	0
23100	0.515061	0
23300	0.523802	0
23500	0.532616	0
23700	0.541504	0
23900	0.550466	0
24100	0.559501	0
24300	0.568610	0
24500	0.577792	0
24700	0.587048	0
24900	0.596377	0
25100	0.605780	0
25300	0.615256	0
25500	0.624806	0
25700	0.634430	0
25900	0.644127	0
26100	0.653897	0
26300	0.663741	0
26500	0.673659	0
26700	0.683650	0
26900	0.693715	0
27100	0.703853	0
27300	0.714065	0
27500	0.724351	0
27700	0.734710	0
27900	0.745142	0
28100	0.755648	0
28300	0.766228	0
28500	0.776881	0
28700	0.787608	0
28900	0.798408	0
29100	0.809282	0
29300	0.820229	0
29500	0.831250	0
29700	0.842344	0
29900	0.853512	0
30100	0.864754	0
30300	0.876069	0
30500	0.887458	0
30700	0.898920	0
30900	0.910455	0
31100	0.922065	32
31300	0.933747	1
31500	0.945504	8
31700	0.957334	4
31900	0.969237	2
32100	0.981214	28
32300	0.993265	80
32500	1.005389	180632
32700	1.017586	748
32900	1.029858	40
33100	1.042202	18
33300	1.054621	6
33500	1.067112	2
33700	1.079678	3
33900	1.092317	4
34100	1.105029	4
34300	1.117815	3
34500	1.130675	0
34700	1.143608	1
34900	1.156614	1
35100	1.169695	0
35300	1.182848	0
35500	1.196076	1
35700	1.209376	0
35900	1.222751	0
36100	1.236199	0
36300	1.249720	0
36500	1.263315	0
36700	1.276984	0
36900	1.290726	0
37100	1.304542	0
37300	1.318431	0
37500	1.332394	0
37700	1.346430	0
37900	1.360540	0
38100	1.374723	0
38300	1.388980	0
38500	1.403311	0
38700	1.417715	0
38900	1.432192	0
39100	1.446743	0
39300	1.461368	0
39500	1.476066	0
39700	1.490838	0
39900	1.505683	0
40100	1.520602	0
40300	1.535595	0
40500	1.550661	0
40700	1.565800	1
40900	1.581013	1
41100	1.596300	0
41300	1.611660	0
41500	1.627094	0
41700	1.642601	0
41900	1.658182	0
42100	1.673836	0
42300	1.689564	0
42500	1.705365	0
42700	1.721240	0
42900	1.737189	0
43100	1.753211	0
43300	1.769306	0
43500	1.785476	0
43700	1.801718	0
43900	1.818035	0
44100	1.834424	0
44300	1.850888	0
44500	1.867425	0
44700	1.884035	0
44900	1.900719	1
45100	1.917477	0
45300	1.934308	0
45500	1.951212	0
45700	1.968191	0
45900	1.985242	0
46100	2.002368	0
46300	2.019566	18
46500	2.036839	0
46700	2.054185	0
46900	2.071604	0
47100	2.089097	0
47300	2.106664	0
47500	2.124304	0
47700	2.142017	0
47900	2.159805	0
48100	2.177665	0
48300	2.195600	0
48500	2.213607	0
48700	2.231689	0
48900	2.249844	0
49100	2.268072	1
49300	2.286374	0
49500	2.304750	0
49700	2.323199	0
49900	2.341722	0
50100	2.360318	0
50300	2.378988	0
50500	2.397731	0
50700	2.416548	0
50900	2.435438	0
51100	2.454402	0
51300	2.473440	1
51500	2.492551	0
51700	2.511735	0
51900	2.530993	0
52100	2.550325	0
52300	2.569730	0
52500	2.589209	0
52700	2.608761	0
52900	2.628387	0
53100	2.648087	0
53300	2.667860	0
53500	2.687706	0
53700	2.707626	0
53900	2.727620	0
54100	2.747687	0
54300	2.767828	0
54500	2.788042	0
54700	2.808330	0
54900	2.828691	0
55100	2.849126	0
55300	2.869634	1
55500	2.890216	0
55700	2.910872	0
55900	2.931601	0
56100	2.952404	0
56300	2.973280	0
56500	2.994229	0
56700	3.015253	1
56900	3.036350	0
57100	3.057520	0
57300	3.078764	0
57500	3.100081	0
57700	3.121472	0
57900	3.142937	0
58100	3.164475	0
58300	3.186086	0
58500	3.207772	0
58700	3.229530	0
58900	3.251363	0
59100	3.273268	0
59300	3.295248	0
59500	3.317301	0
59700	3.339427	0
59900	3.361627	0
60100	3.383901	0
60300	3.406248	0
60500	3.428669	0
60700	3.451163	0
60900	3.473731	0
61100	3.496372	0
61300	3.519087	0
61500	3.541875	0
61700	3.564737	0
61900	3.587672	0
62100	3.610681	0
62300	3.633764	0
62500	3.656920	0
62700	3.680150	0
62900	3.703453	0
63100	3.726830	0
63300	3.750280	0
63500	3.773804	0
63700	3.797401	0
63900	3.821072	0
64100	3.844817	0
64300	3.868635	0
64500	3.892526	0
64700	3.916492	0
64900	3.940530	0
65100	3.964643	0
65300	3.988828	0
65500	4.013088	0
65700	4.037420	0
65900	4.061827	0
66100	4.086307	0
66300	4.110860	0
66500	4.135487	0
66700	4.160188	0
66900	4.184962	0
67100	4.209810	0
67300	4.234731	0
67500	4.259726	0
67700	4.284794	0
67900	4.309936	0
68100	4.335152	0
68300	4.360441	0
68500	4.385803	0
68700	4.411239	0
68900	4.436749	0
69100	4.462332	0
69300	4.487989	0
69500	4.513719	0
69700	4.539523	0
69900	4.565400	0
70100	4.591351	0
70300	4.617375	0
70500	4.643473	0
70700	4.669645	0
70900	4.695890	0
71100	4.722209	0
71300	4.748601	0
71500	4.775067	0
71700	4.801606	0
71900	4.828219	0
72100	4.854905	0
72300	4.881665	0
72500	4.908499	0
72700	4.935406	0
72900	4.962386	0
73100	4.989440	0
73300	5.016568	0
73500	5.043769	0
73700	5.071044	0
73900	5.098392	0
74100	5.125814	0
74300	5.153309	0
74500	5.180878	0
74700	5.208521	0
74900	5.236237	0
75100	5.264026	0
75300	5.291889	0
75500	5.319826	0
75700	5.347836	0
75900	5.375920	0
76100	5.404077	0
76300	5.432308	0
76500	5.460613	0
76700	5.488991	0
76900	5.517442	0
77100	5.545967	0
77300	5.574566	0
77500	5.603238	0
77700	5.631984	0
77900	5.660803	0
78100	5.689696	0
78300	5.718662	0
78500	5.747702	0
78700	5.776815	0
78900	5.806002	0
79100	5.835263	0
79300	5.864597	0
79500	5.894004	0
79700	5.923486	0
79900	5.953040	0
80100	5.982668	0
80300	6.012370	0
80500	6.042146	0
80700	6.071995	0
80900	6.101917	0
81100	6.131913	0
81300	6.161982	0
81500	6.192126	0
81700	6.222342	0
81900	6.252632	0
82100	6.282996	0
82300	6.313433	0
82500	6.343944	0
82700	6.374528	0
82900	6.405186	0
83100	6.435918	0
83300	6.466723	0
83500	6.497601	0
83700	6.528553	0
83900	6.559579	0
84100	6.590678	0
84300	6.621851	0
84500	6.653097	0
84700	6.684417	0
84900	6.715811	0
85100	6.747277	0
85300	6.778818	0
85500	6.810432	0
85700	6.842119	0
85900	6.873881	0
86100	6.905715	0
86300	6.937623	0
86500	6.969605	0
86700	7.001661	0
86900	7.033789	0
87100	7.065992	0
87300	7.098268	0
87500	7.130617	0
87700	7.163040	0
87900	7.195537	0
88100	7.228107	0
88300	7.260751	0
88500	7.293468	0
88700	7.326259	0
88900	7.359123	0
89100	7.392061	0
89300	7.425072	0
89500	7.458157	0
89700	7.491316	0
89900	7.524548	0
90100	7.557853	0
90300	7.591232	0
90500	7.624685	0
90700	7.658211	0
90900	7.691811	1
91100	7.725484	0
91300	7.759231	0
91500	7.793052	0
91700	7.826946	0
91900	7.860913	0
92100	7.894954	0
92300	7.929069	0
92500	7.963257	0
92700	7.997519	0
92900	8.031854	0
93100	8.066263	0
93300	8.100745	0
93500	8.135301	0
93700	8.169930	0
93900	8.204633	0
94100	8.239410	0
94300	8.274260	1
94500	8.309184	0
94700	8.344181	0
94900	8.379252	0
95100	8.414396	0
95300	8.449614	0
95500	8.484905	1
95700	8.520270	0
95900	8.555708	0
96100	8.591220	1
96300	8.626806	0
96500	8.662465	0
96700	8.698198	0
96900	8.734004	0
97100	8.769884	0
97300	8.805837	0
97500	8.841864	0
97700	8.877964	0
97900	8.914138	0
98100	8.950385	0
98300	8.986706	0
98500	9.023101	0
98700	9.059569	0
98900	9.096111	0
99100	9.132726	0
99300	9.169415	0
99500	9.206177	0
99700	9.243013	0
99900	9.279922	0
100100	9.316905	0
100300	9.353962	0
100500	9.391092	0
100700	9.428295	0
100900	9.465572	0
101100	9.502923	0
101300	9.540347	0
101500	9.577845	0
101700	9.615416	0
101900	9.653061	0
102100	9.690780	0
102300	9.728572	0
102500	9.766437	0
102700	9.804376	0
102900	9.842389	0
103100	9.880475	0
103300	9.918635	0
103500	9.956868	0
103700	9.995175	0
103900	10.033555	0
104100	10.072009	0
104300	10.110536	0
104500	10.149137	0
104700	10.187812	0
104900	10.226560	0
105100	10.265381	0
105300	10.304277	0
105500	10.343245	0
105700	10.382288	0
105900	10.421403	0
106100	10.460593	0
106300	10.499856	0
106500	10.539192	0
106700	10.578602	0
106900	10.618086	0
107100	10.657643	1
107300	10.697273	0
107500	10.736977	0
107700	10.776755	0
107900	10.816606	0
108100	10.856531	0
108300	10.896530	0
108500	10.936602	0
108700	10.976747	0
108900	11.016966	0
109100	11.057259	0
109300	11.097625	0
109500	11.138064	0
109700	11.178578	0
109900	11.219164	0
110100	11.259825	0
110300	11.300558	0
110500	11.341366	0
110700	11.382247	0
110900	11.423201	0
111100	11.464229	0
111300	11.505331	0
111500	11.546506	0
111700	11.587754	0
111900	11.629077	0
112100	11.670472	0
112300	11.711942	7
112500	11.753485	0
112700	11.795101	0
112900	11.836791	0
113100	11.878554	1
113300	11.920391	6
113500	11.962302	22
113700	12.004286	19771
113900	12.046344	3
114100	12.088475	0
114300	12.130680	0
114500	12.172958	0
114700	12.215310	0
114900	12.257735	0
115100	12.300234	0
115300	12.342807	0
115500	12.385453	0
115700	12.428173	0
115900	12.470966	0
116100	12.513832	0
116300	12.556773	0
116500	12.599786	1
116700	12.642874	0
116900	12.686035	6
117100	12.729269	0
117300	12.772577	2
117500	12.815959	0
117700	12.859414	0
117900	12.902942	2
118100	12.946544	10
118300	12.990220	23718
118500	13.033969	1726
118700	13.077792	3
118900	13.121688	0
119100	13.165658	0
119300	13.209702	2
119500	13.253819	1
119700	13.298009	0
119900	13.342273	2
120100	13.386611	1
120300	13.431022	0
120500	13.475507	0
120700	13.520065	5
120900	13.564697	6
121100	13.609402	1
121300	13.654181	0
121500	13.699034	0
121700	13.743960	0
121900	13.788959	1
122100	13.834032	0
122300	13.879179	0
122500	13.924399	0
122700	13.969693	0
122900	14.015060	2426
123100	14.060501	2
123300	14.106016	1
123500	14.151603	0
123700	14.197265	1
123900	14.243000	0
124100	14.288809	0
124300	14.334691	1
124500	14.380646	0
124700	14.426676	0
124900	14.472778	0
125100	14.518955	0
125300	14.565204	1
125500	14.611528	2
125700	14.657925	0
125900	14.704395	0
126100	14.750939	0
126300	14.797557	0
126500	14.844248	0
126700	14.891013	0
126900	14.937851	0
127100	14.984763	3
127300	15.031748	686
127500	15.078807	5
127700	15.125939	1
127900	15.173145	0
128100	15.220425	1
128300	15.267778	0
128500	15.315204	0
128700	15.362705	0
128900	15.410278	0
129100	15.457925	1
129300	15.505646	1
129500	15.553441	0
129700	15.601308	1
129900	15.649250	12
130100	15.697265	2
130300	15.745353	1
130500	15.793515	0
130700	15.841751	2
130900	15.890060	5
131100	15.938443	14
131300	15.986899	35078
131500	16.035429	77
131700	16.084032	2
131900	16.132709	4
132100	16.181460	0
132300	16.230284	0
132500	16.279181	1
132700	16.328152	0
132900	16.377197	0
133100	16.426315	1
133300	16.475507	1
133500	16.524772	0
133700	16.574111	1
133900	16.623523	3
134100	16.673009	2
134300	16.722569	2
134500	16.772202	1
134700	16.821908	0
134900	16.871688	2
135100	16.921542	11
135300	16.971469	149
135500	17.021470	24656
135700	17.071544	8
135900	17.121692	3
136100	17.171913	1
136300	17.222208	0
136500	17.272577	5
136700	17.323019	0
136900	17.373534	1
137100	17.424124	0
137300	17.474786	1
137500	17.525522	0
137700	17.576332	1
137900	17.627216	0
138100	17.678172	5
138300	17.729203	2
138500	17.780307	0
138700	17.831484	1
138900	17.882735	0
139100	17.934060	0
139300	17.985458	59
139500	18.036930	2
139700	18.088475	0
139900	18.140094	0
140100	18.191786	0
140300	18.243552	0
140500	18.295391	0
140700	18.347304	0
140900	18.399291	1
141100	18.451351	0
141300	18.503484	2
141500	18.555692	0
141700	18.607972	0
141900	18.660326	0
142100	18.712754	1
142300	18.765256	1
142500	18.817831	1
142700	18.870479	0
142900	18.923201	0
143100	18.975996	2665
143300	19.028866	478
143500	19.081808	2
143700	19.134824	1
143900	19.187914	1
144100	19.241077	0
144300	19.294314	0
144500	19.347624	0
144700	19.401008	0
144900	19.454466	0
145100	19.507997	0
145300	19.561601	1
145500	19.615279	0
145700	19.669031	0
145900	19.722856	0
146100	19.776755	0
146300	19.830727	0
146500	19.884773	0
146700	19.938892	0
146900	19.993085	0
147100	20.047352	0
147300	20.101692	0
147500	20.156105	0
147700	20.210592	2
147900	20.265153	0
148100	20.319787	0
148300	20.374495	0
148500	20.429276	0
148700	20.484131	0
148900	20.539060	0
149100	20.594061	0
149300	20.649137	0
149500	20.704286	0
149700	20.759509	0
149900	20.814805	1
150100	20.870174	0
150300	20.925618	0
150500	20.981134	0
150700	21.036725	0
150900	21.092388	0
151100	21.148126	1
151300	21.203937	0
151500	21.259821	0
151700	21.315779	0
151900	21.371811	0
152100	21.427916	0
152300	21.484095	1
152500	21.540347	0
152700	21.596673	1
152900	21.653072	0
153100	21.709545	0
153300	21.766091	0
153500	21.822711	2
153700	21.879405	0
153900	21.936172	2
154100	21.993013	0
154300	22.049927	0
154500	22.106914	0
154700	22.163976	0
154900	22.221110	0
155100	22.278319	1
155300	22.335601	0
155500	22.392956	0
155700	22.450385	0
155900	22.507888	0
156100	22.565464	1
156300	22.623113	2
156500	22.680836	0
156700	22.738633	0
156900	22.796503	1
157100	22.854447	0
157300	22.912465	0
157500	22.970555	17
157700	23.028720	4
157900	23.086958	0
158100	23.145269	0
158300	23.203655	0
158500	23.262113	0
158700	23.320645	0
158900	23.379251	0
159100	23.437930	0
159300	23.496683	0
159500	23.555510	9
159700	23.614410	8
159900	23.673383	0
160100	23.732430	2
160300	23.791551	0
160500	23.850745	1
160700	23.910012	42
160900	23.969354	21147
161100	24.028768	51268
161300	24.088257	10
161500	24.147818	3
161700	24.207454	4
161900	24.267163	5
162100	24.326945	2
162300	24.386801	3
162500	24.446731	3
162700	24.506734	4
162900	24.566811	18
163100	24.626961	6
163300	24.687185	2
163500	24.747482	9
163700	24.807853	4
163900	24.868297	8
164100	24.928815	79
164300	24.989407	138978
164500	25.050072	2067
164700	25.110810	22
164900	25.171622	15
165100	25.232508	9
165300	25.293467	1
165500	25.354500	3
165700	25.415606	4
165900	25.476786	2
166100	25.538040	5
166300	25.599367	8
166500	25.660767	1
166700	25.722241	2
166900	25.783789	2
167100	25.845410	0
167300	25.907105	19
167500	25.968873	4078
167700	26.030715	41233
167900	26.092630	202
168100	26.154619	57
168300	26.216681	39
168500	26.278817	22
168700	26.341027	22
168900	26.403310	5
169100	26.465667	6
169300	26.528097	5
169500	26.590600	3
169700	26.653178	0
169900	26.715829	1
170100	26.778553	1
170300	26.841351	0
170500	26.904222	3
170700	26.967167	64
170900	27.030186	1681
171100	27.093278	7
171300	27.156444	3
171500	27.219683	1
171700	27.282995	2
171900	27.346382	3
172100	27.409842	3
172300	27.473375	0
172500	27.536982	0
172700	27.600662	1
172900	27.664416	0
173100	27.728244	2
173300	27.792145	3
173500	27.856120	0
173700	27.920168	0
173900	27.984290	44
174100	28.048485	33
174300	28.112754	0
174500	28.177096	2
174700	28.241512	0
174900	28.306002	0
175100	28.370565	0
175300	28.435201	1
175500	28.499911	0
175700	28.564695	0
175900	28.629552	1
176100	28.694483	0
176300	28.759487	0
176500	28.824565	0
176700	28.889716	0
176900	28.954941	34
177100	29.020240	203
177300	29.085612	1
177500	29.151058	0
177700	29.216577	1
177900	29.282169	0
178100	29.347836	1
178300	29.413575	0
178500	29.479389	1
178700	29.545276	0
178900	29.611236	0
179100	29.677270	1
179300	29.743378	0
179500	29.809559	0
179700	29.875813	0
179900	29.942141	1
180100	30.008543	20
180300	30.075018	0
180500	30.141567	0
180700	30.208189	1
180900	30.274885	0
181100	30.341655	2
181300	30.408498	0
181500	30.475414	0
181700	30.542404	0
181900	30.609468	0
182100	30.676605	0
182300	30.743816	0
182500	30.811100	0
182700	30.878458	0
182900	30.945889	7
183100	31.013394	111
183300	31.080973	0
183500	31.148625	0
183700	31.216350	0
183900	31.284149	0
184100	31.352022	0
184300	31.419968	1
184500	31.487988	0
184700	31.556081	0
184900	31.624248	0
185100	31.692488	1
185300	31.760802	0
185500	31.829190	0
185700	31.897651	1
185900	31.966185	1697
186100	32.034793	35
186300	32.103475	1
186500	32.172230	0
186700	32.241059	1
186900	32.309961	0
187100	32.378937	0
187300	32.447987	1
187500	32.517110	2
187700	32.586306	0
187900	32.655576	1
188100	32.724920	1
188300	32.794337	1
188500	32.863827	1
188700	32.933392	4
188900	33.003029	651
189100	33.072741	0
189300	33.142526	0
189500	33.212384	2
189700	33.282316	2
189900	33.352321	0
190100	33.422401	0
190300	33.492553	0
190500	33.562779	0
190700	33.633079	1
190900	33.703452	0
191100	33.773899	0
191300	33.844419	0
191500	33.915013	0
191700	33.985681	35
191900	34.056422	0
192100	34.127236	0
192300	34.198124	0
192500	34.269086	2
192700	34.340121	1
192900	34.411230	7
193100	34.482412	54
193300	34.553668	10
193500	34.624997	5
193700	34.696400	0
193900	34.767876	2
194100	34.839426	37
194300	34.911050	340
194500	34.982747	228583
194700	35.054518	868
194900	35.126362	243
195100	35.198279	110
195300	35.270271	57
195500	35.342336	26
195700	35.414474	14
195900	35.486686	12
196100	35.558971	6
196300	35.631330	8
196500	35.703763	5
196700	35.776269	6
196900	35.848849	7
197100	35.921502	30
197300	35.994228	18826
197500	36.067029	26
197700	36.139903	2
197900	36.212850	2
198100	36.285871	2
198300	36.358965	1
198500	36.432133	16
198700	36.505375	2
198900	36.578690	3
199100	36.652079	0
199300	36.725541	5
199500	36.799077	5
199700	36.872686	27
199900	36.946369	74037
200100	37.020125	6774
200300	37.093955	142
200500	37.167859	50
200700	37.241836	36
200900	37.315886	18
201100	37.390010	10
201300	37.464208	8
201500	37.538479	6
201700	37.612824	6
201900	37.687242	5
202100	37.761734	2
202300	37.836300	0
202500	37.910939	4
202700	37.985651	2472
202900	38.060437	282
203100	38.135297	3
203300	38.210230	1
203500	38.285237	1
203700	38.360317	0
203900	38.435471	1
204100	38.510698	3
204300	38.585999	1
204500	38.661373	0
204700	38.736821	1
204900	38.812343	2
205100	38.887938	2
205300	38.963606	50
205500	39.039349	1157
205700	39.115164	8
205900	39.191054	3
206100	39.267016	1
206300	39.343053	1
206500	39.419163	0
206700	39.495346	2
206900	39.571603	5
207100	39.647934	0
207300	39.724338	0
207500	39.800815	1
207700	39.877366	1
207900	39.953991	892
208100	40.030689	2544
