# Binning: 200 channels
# Deadtime Correction: on
Channel	m/z	Intensity
100	0.000229	1
300	0.000449	459
500	0.000742	14
700	0.001110	0
900	0.001550	0
1100	0.002065	1
1300	0.002653	17
1500	0.003314	16
1700	0.004049	5
1900	0.004858	0
2100	0.005740	0
2300	0.006696	0
2500	0.007725	1
2700	0.008828	0
2900	0.010004	0
3100	0.011254	0
3300	0.012578	0
3500	0.013975	0
3700	0.015446	0
3900	0.016990	0
4100	0.018608	0
4300	0.020299	0
4500	0.022064	0
4700	0.023903	0
4900	0.025815	0
5100	0.027800	0
5300	0.029859	0
5500	0.031992	0
5700	0.034198	0
5900	0.036478	0
6100	0.038831	0
6300	0.041258	0
6500	0.043759	0
6700	0.046333	0
6900	0.048981	0
7100	0.051702	0
7300	0.054497	0
7500	0.057365	0
7700	0.060307	0
7900	0.063322	0
8100	0.066411	0
8300	0.069574	0
8500	0.072810	0
8700	0.076120	0
8900	0.079503	0
9100	0.082960	0
9300	0.086490	0
9500	0.090094	0
9700	0.093771	0
9900	0.097522	0
10100	0.101347	0
10300	0.105245	0
10500	0.109217	0
10700	0.113262	0
10900	0.117381	0
11100	0.121573	0
11300	0.125839	0
11500	0.130179	0
11700	0.134592	0
11900	0.139079	0
12100	0.143639	0
12300	0.148273	0
12500	0.152980	0
12700	0.157761	0
12900	0.162615	0
13100	0.167543	0
13300	0.172545	0
13500	0.177620	0
13700	0.182769	0
13900	0.187991	0
14100	0.193287	0
14300	0.198656	0
14500	0.204099	0
14700	0.209615	0
14900	0.215206	0
15100	0.220869	0
15300	0.226606	0
15500	0.232417	0
15700	0.238301	0
15900	0.244259	0
16100	0.250291	0
16300	0.256396	0
16500	0.262574	0
16700	0.268826	0
16900	0.275152	0
17100	0.281551	0
17300	0.288024	0
17500	0.294570	0
17700	0.301190	0
17900	0.307884	0
18100	0.314651	0
18300	0.321491	0
18500	0.328405	0
18700	0.335393	0
18900	0.342454	0
19100	0.349589	0
19300	0.356797	0
19500	0.364079	0
19700	0.371435	0
19900	0.378864	0
20100	0.386366	0
20300	0.393943	0
20500	0.401592	0
20700	0.409316	0
20900	0.417113	0
21100	0.424983	0
21300	0.432927	0
21500	0.440945	0
21700	0.449036	0
21900	0.457200	0
22100	0.465439	0
22300	0.473750	0
22500	0.482136	0
22700	0.490595	0
22900	0.499127	0
23100	0.507733	0
23300	0.516413	0
23500	0.525166	0
23700	0.533992	0
23900	0.542893	0
24100	0.551867	0
24300	0.560914	0
24500	0.570035	0
24700	0.579229	0
24900	0.588497	0
25100	0.597839	0
25300	0.607254	0
25500	0.616743	0
25700	0.626305	0
25900	0.635941	0
26100	0.645651	0
26300	0.655434	0
26500	0.665290	0
26700	0.675220	0
26900	0.685224	0
27100	0.695301	0
27300	0.705452	0
27500	0.715676	0
27700	0.725974	0
27900	0.736346	0
28100	0.746791	0
28300	0.757309	0
28500	0.767902	0
28700	0.778567	0
28900	0.789307	0
29100	0.800119	0
29300	0.811006	0
29500	0.821966	0
29700	0.832999	0
29900	0.844106	0
30100	0.855287	1
30300	0.866541	0
30500	0.877869	1
30700	0.889270	0
30900	0.900745	0
31100	0.912294	2
31300	0.923916	2
31500	0.935611	1
31700	0.947380	4
31900	0.959223	12
32100	0.971139	80
32300	0.983129	144
32500	0.995192	92
32700	1.007329	4594620
32900	1.019540	104
33100	1.031824	9
33300	1.044181	14
33500	1.056613	22
33700	1.069117	32
33900	1.081696	43
34100	1.094348	33
34300	1.107073	26
34500	1.119872	37
34700	1.132744	33
34900	1.145690	33
35100	1.158710	29
35300	1.171803	37
35500	1.184970	27
35700	1.198210	14
35900	1.211524	16
36100	1.224912	12
36300	1.238373	9
36500	1.251907	11
36700	1.265516	8
36900	1.279197	4
37100	1.292952	7
37300	1.306781	5
37500	1.320684	2
37700	1.334660	0
37900	1.348709	5
38100	1.362832	3
38300	1.377029	5
38500	1.391299	3
38700	1.405643	1
38900	1.420060	2
39100	1.434551	1
39300	1.449115	2
39500	1.463753	1
39700	1.478465	1
39900	1.493250	0
40100	1.508109	1
40300	1.523041	0
40500	1.538047	2
40700	1.553126	3
40900	1.568279	0
41100	1.583505	1
41300	1.598805	1
41500	1.614179	1
41700	1.629626	2
41900	1.645147	1
42100	1.660741	0
42300	1.676409	0
42500	1.692150	0
42700	1.707965	0
42900	1.723854	0
43100	1.739816	1
43300	1.755851	0
43500	1.771961	1
43700	1.788143	0
43900	1.804400	1
44100	1.820729	0
44300	1.837133	2
44500	1.853610	1
44700	1.870160	0
44900	1.886785	1
45100	1.903482	1
45300	1.920253	1
45500	1.937098	0
45700	1.954017	2
45900	1.971008	0
46100	1.988074	0
46300	2.005213	0
46500	2.022426	755
46700	2.039712	1
46900	2.057071	0
47100	2.074505	0
47300	2.092012	7
47500	2.109592	2
47700	2.127246	0
47900	2.144973	0
48100	2.162774	0
48300	2.180649	1
48500	2.198597	0
48700	2.216619	1
48900	2.234714	0
49100	2.252883	2
49300	2.271126	1
49500	2.289442	0
49700	2.307831	2
49900	2.326294	0
50100	2.344831	0
50300	2.363441	0
50500	2.382125	0
50700	2.400882	0
50900	2.419713	0
51100	2.438618	0
51300	2.457596	1
51500	2.476648	0
51700	2.495773	2
51900	2.514971	1
52100	2.534244	2
52300	2.553590	2
52500	2.573009	0
52700	2.592502	1
52900	2.612068	1
53100	2.631709	1
53300	2.651422	0
53500	2.671209	0
53700	2.691070	1
53900	2.711005	1
54100	2.731012	0
54300	2.751094	0
54500	2.771249	4
54700	2.791477	0
54900	2.811780	1
55100	2.832155	2
55300	2.852604	1
55500	2.873127	0
55700	2.893724	0
55900	2.914394	0
56100	2.935137	0
56300	2.955954	0
56500	2.976845	0
56700	2.997809	1
56900	3.018847	2
57100	3.039958	0
57300	3.061143	1
57500	3.082401	0
57700	3.103733	0
57900	3.125139	0
58100	3.146618	0
58300	3.168171	1
58500	3.189797	0
58700	3.211497	2
58900	3.233270	0
59100	3.255117	2
59300	3.277037	1
59500	3.299031	1
59700	3.321099	2
59900	3.343240	3
60100	3.365455	0
60300	3.387743	0
60500	3.410105	0
60700	3.432540	0
60900	3.455049	0
61100	3.477632	0
61300	3.500288	1
61500	3.523017	0
61700	3.545820	0
61900	3.568697	0
62100	3.591647	0
62300	3.614671	0
62500	3.637769	0
62700	3.660940	0
62900	3.684184	5
63100	3.707502	13
63300	3.730894	1
63500	3.754359	0
63700	3.777898	0
63900	3.801510	0
64100	3.825196	1
64300	3.848956	1
64500	3.872789	0
64700	3.896695	1
64900	3.920676	0
65100	3.944729	0
65300	3.968857	1
65500	3.993057	2
65700	4.017332	4
65900	4.041680	0
66100	4.066101	0
66300	4.090596	0
66500	4.115165	0
66700	4.139807	0
66900	4.164523	1
67100	4.189312	0
67300	4.214175	1
67500	4.239112	0
67700	4.264122	0
67900	4.289205	0
68100	4.314362	0
68300	4.339593	0
68500	4.364897	0
68700	4.390275	1
68900	4.415726	0
69100	4.441251	1
69300	4.466850	0
69500	4.492522	0
69700	4.518267	0
69900	4.544087	0
70100	4.569979	0
70300	4.595946	0
70500	4.621985	1
70700	4.648099	0
70900	4.674286	0
71100	4.700546	1
71300	4.726880	0
71500	4.753288	0
71700	4.779769	0
71900	4.806324	1
72100	4.832952	0
72300	4.859654	1
72500	4.886430	0
72700	4.913279	0
72900	4.940201	0
73100	4.967197	0
73300	4.994267	0
73500	5.021410	2
73700	5.048627	0
73900	5.075917	0
74100	5.103281	0
74300	5.130719	0
74500	5.158230	0
74700	5.185815	0
74900	5.213473	0
75100	5.241204	0
75300	5.269010	0
75500	5.296889	0
75700	5.324841	1
75900	5.352867	3
76100	5.380966	4
76300	5.409140	1
76500	5.437386	0
76700	5.465706	1
76900	5.494100	1
77100	5.522568	0
77300	5.551108	0
77500	5.579723	0
77700	5.608411	0
77900	5.637173	0
78100	5.666008	2
78300	5.694916	2
78500	5.723899	0
78700	5.752954	0
78900	5.782084	1
79100	5.811287	0
79300	5.840563	1
79500	5.869913	1
79700	5.899337	1
79900	5.928834	0
80100	5.958405	0
80300	5.988049	2
80500	6.017767	7
80700	6.047558	1
80900	6.077423	1
81100	6.107362	0
81300	6.137374	0
81500	6.167460	0
81700	6.197619	0
81900	6.227852	0
82100	6.258158	0
82300	6.288538	0
82500	6.318991	3
82700	6.349518	0
82900	6.380119	0
83100	6.410793	0
83300	6.441541	0
83500	6.472362	2
83700	6.503257	0
83900	6.534225	0
84100	6.565267	0
84300	6.596383	0
84500	6.627572	0
84700	6.658835	1
84900	6.690171	1
85100	6.721581	0
85300	6.753064	0
85500	6.784621	1
85700	6.816251	0
85900	6.847955	2
86100	6.879733	1
86300	6.911584	1
86500	6.943508	2
86700	6.975507	1
86900	7.007579	38
87100	7.039724	12
87300	7.071943	2
87500	7.104235	3
87700	7.136601	1
87900	7.169041	1
88100	7.201554	1
88300	7.234141	2
88500	7.266801	5
88700	7.299535	2
88900	7.332342	1
89100	7.365223	0
89300	7.398178	0
89500	7.431206	0
89700	7.464307	0
89900	7.497483	1
90100	7.530731	1
90300	7.564054	0
90500	7.597450	3
90700	7.630919	3
90900	7.664462	1
91100	7.698079	0
91300	7.731769	0
91500	7.765532	0
91700	7.799370	0
91900	7.833281	0
92100	7.867265	0
92300	7.901323	0
92500	7.935454	0
92700	7.969659	0
92900	8.003938	0
93100	8.038290	14
93300	8.072716	0
93500	8.107215	0
93700	8.141788	0
93900	8.176434	0
94100	8.211154	0
94300	8.245948	0
94500	8.280815	0
94700	8.315756	0
94900	8.350770	0
95100	8.385858	0
95300	8.421019	0
95500	8.456254	0
95700	8.491562	1
95900	8.526944	0
96100	8.562400	0
96300	8.597929	0
96500	8.633532	0
96700	8.669208	0
96900	8.704958	0
97100	8.740781	0
97300	8.776678	0
97500	8.812649	0
97700	8.848693	0
97900	8.884810	0
98100	8.921001	1
98300	8.957266	0
98500	8.993605	0
98700	9.030016	3
98900	9.066502	0
99100	9.103061	0
99300	9.139693	0
99500	9.176399	0
99700	9.213179	0
99900	9.250032	0
100100	9.286959	0
100300	9.323959	0
100500	9.361033	2
100700	9.398181	0
100900	9.435402	0
101100	9.472696	0
101300	9.510065	0
101500	9.547506	0
101700	9.585022	1
101900	9.622610	0
102100	9.660273	0
102300	9.698009	0
102500	9.735818	0
102700	9.773701	0
102900	9.811658	0
103100	9.849688	0
103300	9.887792	0
103500	9.925969	0
103700	9.964220	0
103900	10.002544	6
104100	10.040942	0
104300	10.079414	0
104500	10.117959	0
104700	10.156578	0
104900	10.195270	0
105100	10.234036	0
105300	10.272875	0
105500	10.311788	0
105700	10.350775	0
105900	10.389835	0
106100	10.428968	0
106300	10.468175	0
106500	10.507456	0
106700	10.546810	0
106900	10.586238	0
107100	10.625740	0
107300	10.665315	0
107500	10.704963	0
107700	10.744685	0
107900	10.784481	0
108100	10.824350	0
108300	10.864293	0
108500	10.904309	0
108700	10.944399	2
108900	10.984562	0
109100	11.024799	34
109300	11.065110	0
109500	11.105494	1
109700	11.145952	0
109900	11.186483	1
110100	11.227088	1
110300	11.267766	1
110500	11.308518	0
110700	11.349344	1
110900	11.390243	2
111100	11.431215	2
111300	11.472261	1
111500	11.513381	1
111700	11.554574	0
111900	11.595841	1
112100	11.637182	1
112300	11.678596	1
112500	11.720083	1
112700	11.761644	0
112900	11.803279	2
113100	11.844987	1
113300	11.886769	0
113500	11.928624	1
113700	11.970553	240
113900	12.012555	169699
114100	12.054631	14
114300	12.096781	7
114500	12.139004	7
114700	12.181301	6
114900	12.223671	13
115100	12.266115	8
115300	12.308632	3
115500	12.351223	7
115700	12.393888	8
115900	12.436626	7
116100	12.479437	16
116300	12.522323	8
116500	12.565281	9
116700	12.608314	21
116900	12.651419	11
117100	12.694599	10
117300	12.737852	12
117500	12.781178	6
117700	12.824579	7
117900	12.868052	10
118100	12.911599	7
118300	12.955220	10
118500	12.998915	615032
118700	13.042682	294
118900	13.086524	17
119100	13.130439	20
119300	13.174427	21
119500	13.218490	24
119700	13.262625	19
119900	13.306835	23
120100	13.351117	23
120300	13.395474	17
120500	13.439904	20
120700	13.484407	21
120900	13.528984	156
121100	13.573635	26
121300	13.618359	8
121500	13.663157	10
121700	13.708028	8
121900	13.752973	11
122100	13.797991	12
122300	13.843083	16
122500	13.888249	6
122700	13.933488	5
122900	13.978801	8
123100	14.024187	165840
123300	14.069647	38
123500	14.115180	24
123700	14.160787	33
123900	14.206468	22
124100	14.252222	23
124300	14.298049	20
124500	14.343950	15
124700	14.389925	8
124900	14.435973	12
125100	14.482095	7
125300	14.528291	12
125500	14.574559	215
125700	14.620902	47
125900	14.667318	12
126100	14.713808	11
126300	14.760371	12
126500	14.807008	7
126700	14.853718	9
126900	14.900502	9
127100	14.947359	6
127300	14.994290	1499
127500	15.041295	111526
127700	15.088373	213
127900	15.135525	71
128100	15.182750	47
128300	15.230049	31
128500	15.277421	34
128700	15.324867	17
128900	15.372386	9
129100	15.419979	12
129300	15.467646	8
129500	15.515386	7
129700	15.563200	10
129900	15.611087	7
130100	15.659048	134
130300	15.707083	6
130500	15.755190	16
130700	15.803372	10
130900	15.851627	7
131100	15.899956	10
131300	15.948358	175
131500	15.996834	1077164
131700	16.045383	1581
131900	16.094006	23
132100	16.142702	24
132300	16.191472	21
132500	16.240316	19
132700	16.289233	22
132900	16.338224	23
133100	16.387288	17
133300	16.436426	22
133500	16.485637	21
133700	16.534922	12
133900	16.584281	11
134100	16.633713	5
134300	16.683218	9
134500	16.732797	4
134700	16.782450	6
134900	16.832176	10
135100	16.881976	6
135300	16.931850	10
135500	16.981797	1114776
135700	17.031817	45405
135900	17.081911	78
136100	17.132079	50
136300	17.182320	40
136500	17.232635	58
136700	17.283023	54
136900	17.333485	29
137100	17.384021	45
137300	17.434630	32
137500	17.485312	20
137700	17.536068	17
137900	17.586898	19
138100	17.637801	12
138300	17.688778	253
138500	17.739829	45
138700	17.790953	10
138900	17.842150	16
139100	17.893421	18
139300	17.944766	13
139500	17.996184	2503
139700	18.047676	17
139900	18.099241	10
140100	18.150880	7
140300	18.202592	9
140500	18.254378	12
140700	18.306238	5
140900	18.358171	6
141100	18.410178	5
141300	18.462258	4
141500	18.514412	3
141700	18.566639	4
141900	18.618940	4
142100	18.671314	5
142300	18.723762	3
142500	18.776284	4
142700	18.828879	9
142900	18.881548	6
143100	18.934290	5
143300	18.987106	28759
143500	19.039995	844
143700	19.092958	8
143900	19.145995	8
144100	19.199105	1
144300	19.252288	3
144500	19.305546	4
144700	19.358876	3
144900	19.412281	2
145100	19.465759	3
145300	19.519310	5
145500	19.572935	1
145700	19.626634	4
145900	19.680406	1
146100	19.734251	4
146300	19.788171	4
146500	19.842163	2
146700	19.896230	3
146900	19.950370	1
147100	20.004583	4
147300	20.058870	1
147500	20.113231	4
147700	20.167665	8
147900	20.222173	1
148100	20.276754	3
148300	20.331409	3
148500	20.386137	1
148700	20.440939	1
148900	20.495815	1
149100	20.550764	2
149300	20.605786	3
149500	20.660883	1
149700	20.716052	1
149900	20.771296	0
150100	20.826613	1
150300	20.882003	0
150500	20.937467	2
150700	20.993005	4
150900	21.048616	6
151100	21.104300	0
151300	21.160059	1
151500	21.215890	1
151700	21.271796	0
151900	21.327775	0
152100	21.383827	0
152300	21.439953	0
152500	21.496153	0
152700	21.552426	0
152900	21.608773	0
153100	21.665193	0
153300	21.721687	1
153500	21.778254	1
153700	21.834895	0
153900	21.891610	0
154100	21.948398	2
154300	22.005260	12
154500	22.062195	8
154700	22.119204	4
154900	22.176286	0
155100	22.233442	2
155300	22.290671	3
155500	22.347974	0
155700	22.405351	2
155900	22.462801	1
156100	22.520325	0
156300	22.577922	1
156500	22.635593	0
156700	22.693337	0
156900	22.751155	1
157100	22.809047	4
157300	22.867012	0
157500	22.925050	2
157700	22.983162	1448
157900	23.041348	81
158100	23.099607	8
158300	23.157940	2
158500	23.216347	1
158700	23.274827	2
158900	23.333380	0
159100	23.392007	0
159300	23.450708	1
159500	23.509482	1
159700	23.568330	1
159900	23.627251	1
160100	23.686246	1
160300	23.745315	0
160500	23.804457	0
160700	23.863672	0
160900	23.922962	81
161100	23.982324	216166
161300	24.041760	592
161500	24.101270	38
161700	24.160854	23
161900	24.220511	23
162100	24.280241	16
162300	24.340045	20
162500	24.399923	21
162700	24.459874	16
162900	24.519899	16
163100	24.579997	18
163300	24.640169	10
163500	24.700414	14
163700	24.760733	15
163900	24.821126	19
164100	24.881592	15
164300	24.942132	29
164500	25.002745	892152
164700	25.063432	1185
164900	25.124192	153
165100	25.185026	92
165300	25.245934	60
165500	25.306915	49
165700	25.367969	33
165900	25.429097	32
166100	25.490299	24
166300	25.551574	30
166500	25.612923	17
166700	25.674346	11
166900	25.735841	12
167100	25.797411	14
167300	25.859054	9
167500	25.920771	14
167700	25.982561	222563
167900	26.044425	16250
168100	26.106362	673
168300	26.168373	214
168500	26.230457	104
168700	26.292615	51
168900	26.354847	27
169100	26.417152	16
169300	26.479531	16
169500	26.541983	20
169700	26.604509	11
169900	26.667108	13
170100	26.729781	5
170300	26.792528	6
170500	26.855348	5
170700	26.918241	6
170900	26.981208	11190
171100	27.044249	38232
171300	27.107363	90
171500	27.170551	29
171700	27.233813	18
171900	27.297148	16
172100	27.360556	9
172300	27.424038	4
172500	27.487594	15
172700	27.551223	5
172900	27.614926	4
173100	27.678702	3
173300	27.742552	2
173500	27.806476	4
173700	27.870473	4
173900	27.934543	17
174100	27.998687	3034
174300	28.062905	208
174500	28.127196	12
174700	28.191561	1
174900	28.255999	2
175100	28.320511	5
175300	28.385097	3
175500	28.449756	2
175700	28.514488	6
175900	28.579295	3
176100	28.644174	3
176300	28.709128	4
176500	28.774155	1
176700	28.839255	3
176900	28.904429	6
177100	28.969676	3793
177300	29.034998	4955
177500	29.100392	7
177700	29.165860	6
177900	29.231402	4
178100	29.297018	2
178300	29.362706	8
178500	29.428469	6
178700	29.494305	2
178900	29.560215	3
179100	29.626198	6
179300	29.692254	11
179500	29.758385	5
179700	29.824588	1
179900	29.890866	3
180100	29.957217	187
180300	30.023641	1477
180500	30.090139	4
180700	30.156711	2
180900	30.223356	5
181100	30.290075	4
181300	30.356867	2
181500	30.423733	3
181700	30.490673	5
181900	30.557686	3
182100	30.624772	2
182300	30.691932	2
182500	30.759166	5
182700	30.826473	5
182900	30.893854	1
183100	30.961308	148
183300	31.028836	4782
183500	31.096438	10
183700	31.164113	4
183900	31.231861	1
184100	31.299683	1
184300	31.367579	5
184500	31.435548	3
184700	31.503591	2
184900	31.571708	2
185100	31.639898	4
185300	31.708161	1
185500	31.776498	1
185700	31.844909	2
185900	31.913393	3
186100	31.981951	28264
186300	32.050582	71
186500	32.119287	4
186700	32.188065	2
186900	32.256917	5
187100	32.325843	5
187300	32.394842	3
187500	32.463915	2
187700	32.533061	7
187900	32.602281	1
188100	32.671574	3
188300	32.740941	4
188500	32.810382	4
188700	32.879896	3
188900	32.949483	3434
189100	33.019144	6146
189300	33.088879	31
189500	33.158687	9
189700	33.228569	5
189900	33.298525	9
190100	33.368554	8
190300	33.438656	4
190500	33.508832	2
190700	33.579082	5
190900	33.649405	6
191100	33.719802	4
191300	33.790272	2
191500	33.860816	4
191700	33.931434	25
191900	34.002125	692
192100	34.072889	4
192300	34.143727	2
192500	34.214639	4
192700	34.285624	2
192900	34.356683	2
193100	34.427815	2
193300	34.499021	2
193500	34.570301	1
193700	34.641654	1
193900	34.713080	12
194100	34.784581	2
194300	34.856154	10
194500	34.927802	568
194700	34.999522	3788461
194900	35.071317	660
195100	35.143185	551
195300	35.215126	617
195500	35.287142	570
195700	35.359230	476
195900	35.431392	317
196100	35.503628	249
196300	35.575938	193
196500	35.648320	156
196700	35.720777	96
196900	35.793307	101
197100	35.865910	76
197300	35.938588	91
197500	36.011338	27843
197700	36.084163	64
197900	36.157060	56
198100	36.230032	52
198300	36.303077	47
198500	36.376195	36
198700	36.449387	47
198900	36.522653	24
199100	36.595992	25
199300	36.669405	13
199500	36.742891	19
199700	36.816451	15
199900	36.890084	102
200100	36.963791	1722823
200300	37.037572	55645
200500	37.111426	1054
200700	37.185354	539
200900	37.259355	400
201100	37.333430	192
201300	37.407578	140
201500	37.481800	104
201700	37.556095	78
201900	37.630465	74
202100	37.704907	50
202300	37.779423	32
202500	37.854013	28
202700	37.928676	51
202900	38.003413	38137
203100	38.078223	101
203300	38.153107	25
203500	38.228065	26
203700	38.303096	34
203900	38.378201	31
204100	38.453379	25
204300	38.528631	34
204500	38.603956	23
204700	38.679355	13
204900	38.754827	16
205100	38.830373	13
205300	38.905993	16
205500	38.981686	4449
205700	39.057453	18776
