# Binning: 200 channels
# Deadtime Correction: on
Channel	m/z	Intensity
100	0.000276	0
300	0.000512	49
500	0.000821	0
700	0.001202	0
900	0.001656	0
1100	0.002182	1
1300	0.002780	21
1500	0.003452	50
1700	0.004195	28
1900	0.005012	3
2100	0.005901	1
2300	0.006862	3
2500	0.007896	1
2700	0.009002	3
2900	0.010181	2
3100	0.011432	3
3300	0.012756	1
3500	0.014152	1
3700	0.015621	1
3900	0.017162	1
4100	0.018776	0
4300	0.020462	0
4500	0.022221	0
4700	0.024053	0
4900	0.025956	0
5100	0.027933	0
5300	0.029982	0
5500	0.032103	0
5700	0.034297	1
5900	0.036563	0
6100	0.038902	0
6300	0.041314	0
6500	0.043798	0
6700	0.046354	0
6900	0.048983	0
7100	0.051685	0
7300	0.054458	0
7500	0.057305	0
7700	0.060224	0
7900	0.063215	0
8100	0.066279	0
8300	0.069416	0
8500	0.072625	0
8700	0.075906	0
8900	0.079260	0
9100	0.082687	0
9300	0.086186	0
9500	0.089758	0
9700	0.093402	0
9900	0.097118	0
10100	0.100907	0
10300	0.104769	0
10500	0.108703	0
10700	0.112709	0
10900	0.116788	0
11100	0.120940	0
11300	0.125164	0
11500	0.129461	0
11700	0.133830	1
11900	0.138272	0
12100	0.142786	0
12300	0.147372	0
12500	0.152031	0
12700	0.156763	0
12900	0.161567	0
13100	0.166444	0
13300	0.171393	0
13500	0.176415	0
13700	0.181509	0
13900	0.186676	0
14100	0.191915	0
14300	0.197227	0
14500	0.202611	0
14700	0.208068	0
14900	0.213597	0
15100	0.219199	1
15300	0.224873	0
15500	0.230620	0
15700	0.236439	0
15900	0.242331	0
16100	0.248295	0
16300	0.254332	0
16500	0.260441	0
16700	0.266623	0
16900	0.272877	0
17100	0.279204	0
17300	0.285603	0
17500	0.292075	0
17700	0.298619	0
17900	0.305236	0
18100	0.311926	0
18300	0.318688	0
18500	0.325522	0
18700	0.332429	0
18900	0.339408	0
19100	0.346460	0
19300	0.353584	0
19500	0.360781	0
19700	0.368051	0
19900	0.375393	0
20100	0.382807	0
20300	0.390294	0
20500	0.397853	0
20700	0.405485	0
20900	0.413190	0
21100	0.420967	0
21300	0.428816	0
21500	0.436738	0
21700	0.444733	0
21900	0.452800	0
22100	0.460939	0
22300	0.469151	0
22500	0.477436	0
22700	0.485793	0
22900	0.494222	0
23100	0.502724	0
23300	0.511299	0
23500	0.519946	0
23700	0.528666	0
23900	0.537458	0
24100	0.546322	0
24300	0.555259	0
24500	0.564269	0
24700	0.573351	0
24900	0.582506	0
25100	0.591733	0
25300	0.601032	0
25500	0.610405	0
25700	0.619849	0
25900	0.629366	0
26100	0.638956	0
26300	0.648618	0
26500	0.658353	0
26700	0.668160	0
26900	0.678040	0
27100	0.687992	0
27300	0.698017	0
27500	0.708114	0
27700	0.718283	0
27900	0.728526	0
28100	0.738840	0
28300	0.749228	0
28500	0.759687	0
28700	0.770220	0
28900	0.780824	0
29100	0.791502	0
29300	0.802251	0
29500	0.813074	0
29700	0.823968	0
29900	0.834936	0
30100	0.845976	0
30300	0.857088	0
30500	0.868273	0
30700	0.879530	0
30900	0.890860	0
31100	0.902262	0
31300	0.913737	3
31500	0.925284	1
31700	0.936904	2
31900	0.948597	2
32100	0.960361	8
32300	0.972199	60
32500	0.984109	65
32700	0.996091	61
32900	1.008146	1218019
33100	1.020273	598
33300	1.032473	52
33500	1.044746	39
33700	1.057091	38
33900	1.069508	26
34100	1.081998	17
34300	1.094561	19
34500	1.107195	18
34700	1.119903	14
34900	1.132683	12
35100	1.145535	10
35300	1.158460	5
35500	1.171458	8
35700	1.184528	7
35900	1.197670	3
36100	1.210885	4
36300	1.224173	2
36500	1.237533	3
36700	1.250966	4
36900	1.264471	3
37100	1.278048	0
37300	1.291698	0
37500	1.305421	2
37700	1.319216	2
37900	1.333083	1
38100	1.347024	2
38300	1.361036	2
38500	1.375121	1
38700	1.389279	0
38900	1.403509	0
39100	1.417812	0
39300	1.432187	1
39500	1.446634	0
39700	1.461155	1
39900	1.475747	1
40100	1.490412	4
40300	1.505150	2
40500	1.519960	1
40700	1.534843	1
40900	1.549798	1
41100	1.564826	0
41300	1.579926	0
41500	1.595099	0
41700	1.610344	1
41900	1.625662	0
42100	1.641052	0
42300	1.656515	1
42500	1.672050	1
42700	1.687658	0
42900	1.703338	1
43100	1.719091	1
43300	1.734916	0
43500	1.750814	2
43700	1.766784	1
43900	1.782827	0
44100	1.798942	0
44300	1.815130	0
44500	1.831391	0
44700	1.847723	0
44900	1.864129	1
45100	1.880607	0
45300	1.897157	0
45500	1.913780	0
45700	1.930475	0
45900	1.947243	1
46100	1.964083	0
46300	1.980996	1
46500	1.997982	0
46700	2.015040	103
46900	2.032170	0
47100	2.049373	0
47300	2.066648	0
47500	2.083996	0
47700	2.101417	1
47900	2.118910	0
48100	2.136475	2
48300	2.154113	0
48500	2.171824	0
48700	2.189607	0
48900	2.207462	0
49100	2.225390	1
49300	2.243391	0
49500	2.261464	0
49700	2.279609	0
49900	2.297827	0
50100	2.316118	0
50300	2.334481	1
50500	2.352916	0
50700	2.371424	0
50900	2.390005	0
51100	2.408658	0
51300	2.427384	0
51500	2.446182	0
51700	2.465052	0
51900	2.483995	0
52100	2.503011	0
52300	2.522099	0
52500	2.541260	0
52700	2.560493	0
52900	2.579799	0
53100	2.599177	0
53300	2.618627	0
53500	2.638151	0
53700	2.657746	0
53900	2.677414	0
54100	2.697155	0
54300	2.716968	0
54500	2.736854	1
54700	2.756812	0
54900	2.776843	0
55100	2.796946	0
55300	2.817122	0
55500	2.837370	0
55700	2.857691	0
55900	2.878084	0
56100	2.898550	0
56300	2.919088	1
56500	2.939699	0
56700	2.960382	0
56900	2.981138	0
57100	3.001966	0
57300	3.022867	2
57500	3.043840	0
57700	3.064886	0
57900	3.086005	0
58100	3.107195	0
58300	3.128459	0
58500	3.149795	0
58700	3.171203	0
58900	3.192684	0
59100	3.214237	0
59300	3.235863	1
59500	3.257561	0
59700	3.279332	1
59900	3.301176	0
60100	3.323092	0
60300	3.345080	0
60500	3.367141	0
60700	3.389274	0
60900	3.411480	0
61100	3.433759	0
61300	3.456110	0
61500	3.478533	0
61700	3.501029	0
61900	3.523598	0
62100	3.546239	0
62300	3.568952	0
62500	3.591738	0
62700	3.614597	0
62900	3.637528	0
63100	3.660531	2
63300	3.683607	3
63500	3.706756	0
63700	3.729977	1
63900	3.753270	0
64100	3.776636	0
64300	3.800075	0
64500	3.823586	0
64700	3.847170	0
64900	3.870826	0
65100	3.894554	0
65300	3.918355	0
65500	3.942229	0
65700	3.966175	0
65900	3.990194	0
66100	4.014285	0
66300	4.038448	0
66500	4.062685	0
66700	4.086993	0
66900	4.111374	0
67100	4.135828	0
67300	4.160354	0
67500	4.184953	0
67700	4.209624	0
67900	4.234368	0
68100	4.259184	0
68300	4.284073	0
68500	4.309034	0
68700	4.334068	0
68900	4.359174	0
69100	4.384353	0
69300	4.409604	0
69500	4.434928	0
69700	4.460324	0
69900	4.485793	0
70100	4.511334	0
70300	4.536948	0
70500	4.562634	0
70700	4.588393	0
70900	4.614224	1
71100	4.640128	0
71300	4.666104	0
71500	4.692153	0
71700	4.718274	0
71900	4.744468	0
72100	4.770735	0
72300	4.797073	0
72500	4.823485	0
72700	4.849969	1
72900	4.876525	0
73100	4.903154	0
73300	4.929855	0
73500	4.956629	0
73700	4.983476	0
73900	5.010395	0
74100	5.037386	0
74300	5.064450	0
74500	5.091586	0
74700	5.118795	0
74900	5.146077	0
75100	5.173431	0
75300	5.200857	0
75500	5.228356	0
75700	5.255928	0
75900	5.283572	0
76100	5.311288	0
76300	5.339077	2
76500	5.366939	0
76700	5.394873	0
76900	5.422879	0
77100	5.450958	0
77300	5.479110	0
77500	5.507334	0
77700	5.535630	0
77900	5.564000	0
78100	5.592441	0
78300	5.620955	0
78500	5.649542	0
78700	5.678201	0
78900	5.706932	0
79100	5.735737	0
79300	5.764613	0
79500	5.793562	0
79700	5.822584	0
79900	5.851678	0
80100	5.880845	0
80300	5.910084	0
80500	5.939396	0
80700	5.968780	0
80900	5.998236	0
81100	6.027766	1
81300	6.057367	0
81500	6.087041	1
81700	6.116788	1
81900	6.146607	0
82100	6.176499	1
82300	6.206463	0
82500	6.236500	0
82700	6.266609	1
82900	6.296791	1
83100	6.327045	0
83300	6.357372	1
83500	6.387771	0
83700	6.418243	0
83900	6.448787	0
84100	6.479404	0
84300	6.510094	1
84500	6.540855	0
84700	6.571690	0
84900	6.602596	2
85100	6.633576	0
85300	6.664628	0
85500	6.695752	0
85700	6.726949	0
85900	6.758218	1
86100	6.789560	1
86300	6.820974	1
86500	6.852461	1
86700	6.884021	2
86900	6.915653	1
87100	6.947357	0
87300	6.979134	0
87500	7.010983	1
87700	7.042905	1
87900	7.074900	0
88100	7.106967	1
88300	7.139106	4
88500	7.171318	0
88700	7.203603	4
88900	7.235959	5
89100	7.268389	1
89300	7.300891	1
89500	7.333465	0
89700	7.366112	1
89900	7.398832	0
90100	7.431624	1
90300	7.464489	1
90500	7.497426	1
90700	7.530435	1
90900	7.563517	1
91100	7.596672	0
91300	7.629899	1
91500	7.663198	0
91700	7.696570	0
91900	7.730015	0
92100	7.763532	0
92300	7.797122	0
92500	7.830784	0
92700	7.864518	0
92900	7.898325	0
93100	7.932205	0
93300	7.966157	0
93500	8.000182	0
93700	8.034279	2
93900	8.068449	1
94100	8.102691	0
94300	8.137006	0
94500	8.171393	0
94700	8.205852	1
94900	8.240385	0
95100	8.274989	0
95300	8.309666	0
95500	8.344416	0
95700	8.379238	0
95900	8.414133	0
96100	8.449100	0
96300	8.484140	0
96500	8.519252	0
96700	8.554437	0
96900	8.589694	0
97100	8.625024	0
97300	8.660426	0
97500	8.695901	0
97700	8.731449	0
97900	8.767068	0
98100	8.802761	0
98300	8.838526	0
98500	8.874363	0
98700	8.910273	0
98900	8.946255	0
99100	8.982310	0
99300	9.018437	0
99500	9.054637	0
99700	9.090909	0
99900	9.127254	0
100100	9.163672	0
100300	9.200162	0
100500	9.236724	0
100700	9.273359	0
100900	9.310066	0
101100	9.346846	0
101300	9.383699	0
101500	9.420624	0
101700	9.457621	0
101900	9.494691	0
102100	9.531833	0
102300	9.569048	0
102500	9.606336	0
102700	9.643696	0
102900	9.681128	0
103100	9.718633	0
103300	9.756211	0
103500	9.793861	0
103700	9.831583	0
103900	9.869378	0
104100	9.907246	0
104300	9.945186	0
104500	9.983199	0
104700	10.021284	5
104900	10.059441	0
105100	10.097671	0
105300	10.135974	0
105500	10.174349	0
105700	10.212796	0
105900	10.251317	0
106100	10.289909	0
106300	10.328574	0
106500	10.367312	1
106700	10.406122	0
106900	10.445005	1
107100	10.483960	1
107300	10.522988	0
107500	10.562088	0
107700	10.601260	0
107900	10.640506	2
108100	10.679823	0
108300	10.719213	1
108500	10.758676	1
108700	10.798211	0
108900	10.837819	0
109100	10.877499	0
109300	10.917252	1
109500	10.957077	1
109700	10.996975	26
109900	11.036945	6
110100	11.076988	0
110300	11.117103	0
110500	11.157291	0
110700	11.197551	0
110900	11.237884	0
111100	11.278289	0
111300	11.318767	0
111500	11.359317	0
111700	11.399940	0
111900	11.440636	0
112100	11.481403	0
112300	11.522244	0
112500	11.563157	0
112700	11.604142	0
112900	11.645200	0
113100	11.686330	1
113300	11.727533	2
113500	11.768808	2
113700	11.810156	0
113900	11.851577	2
114100	11.893070	1
114300	11.934635	0
114500	11.976273	166
114700	12.017983	30306
114900	12.059766	7
115100	12.101622	1
115300	12.143550	1
115500	12.185550	0
115700	12.227623	0
115900	12.269769	2
116100	12.311986	0
116300	12.354277	3
116500	12.396640	1
116700	12.439075	0
116900	12.481583	1
117100	12.524164	3
117300	12.566817	2
117500	12.609543	2
117700	12.652341	3
117900	12.695211	1
118100	12.738154	3
118300	12.781170	3
118500	12.824258	0
118700	12.867418	4
118900	12.910651	2
119100	12.953957	3
119300	12.997335	89751
119500	13.040786	198
119700	13.084309	6
119900	13.127904	5
120100	13.171573	4
120300	13.215313	2
120500	13.259126	6
120700	13.303012	0
120900	13.346970	3
121100	13.391001	1
121300	13.435104	2
121500	13.479280	2
121700	13.523528	8
121900	13.567849	13
122100	13.612242	2
122300	13.656707	2
122500	13.701246	0
122700	13.745856	2
122900	13.790540	4
123100	13.835295	5
123300	13.880124	3
123500	13.925024	1
123700	13.969998	0
123900	14.015043	32456
124100	14.060162	29
124300	14.105352	6
124500	14.150616	2
124700	14.195951	3
124900	14.241360	2
125100	14.286841	7
125300	14.332394	3
125500	14.378020	3
125700	14.423718	3
125900	14.469489	2
126100	14.515332	4
126300	14.561248	1
126500	14.607236	39
126700	14.653297	5
126900	14.699431	3
127100	14.745637	4
127300	14.791915	2
127500	14.838266	3
127700	14.884689	3
127900	14.931185	3
128100	14.977754	1
128300	15.024395	48264
128500	15.071108	159
128700	15.117894	27
128900	15.164752	32
129100	15.211683	13
129300	15.258687	9
129500	15.305763	13
129700	15.352911	6
129900	15.400132	6
130100	15.447426	11
130300	15.494792	7
130500	15.542230	4
130700	15.589741	4
130900	15.637325	57
131100	15.684981	8
131300	15.732709	4
131500	15.780510	4
131700	15.828384	29
131900	15.876330	10
132100	15.924349	18
132300	15.972440	323259
132500	16.020603	202546
132700	16.068839	44
132900	16.117148	12
133100	16.165529	21
133300	16.213983	11
133500	16.262509	10
133700	16.311107	11
133900	16.359778	7
134100	16.408522	9
134300	16.457338	11
134500	16.506227	13
134700	16.555188	6
134900	16.604222	7
135100	16.653328	5
135300	16.702507	8
135500	16.751758	4
135700	16.801082	5
135900	16.850478	21
136100	16.899946	2
136300	16.949488	6
136500	16.999101	414909
136700	17.048788	447
136900	17.098546	38
137100	17.148378	26
137300	17.198281	20
137500	17.248258	16
137700	17.298306	21
137900	17.348428	15
138100	17.398622	16
138300	17.448888	13
138500	17.499227	18
138700	17.549638	12
138900	17.600122	10
139100	17.650678	6
139300	17.701307	95
139500	17.752008	19
139700	17.802782	9
139900	17.853628	4
140100	17.904547	5
140300	17.955539	6
140500	18.006603	1148
140700	18.057739	7
140900	18.108948	3
141100	18.160229	3
141300	18.211583	1
141500	18.263010	3
141700	18.314508	4
141900	18.366080	1
142100	18.417724	4
142300	18.469440	5
142500	18.521229	5
142700	18.573091	3
142900	18.625025	4
143100	18.677031	1
143300	18.729110	1
143500	18.781262	4
143700	18.833486	2
143900	18.885782	1
144100	18.938151	0
144300	18.990593	27915
144500	19.043107	597
144700	19.095693	6
144900	19.148352	5
145100	19.201084	5
145300	19.253888	5
145500	19.306764	1
145700	19.359713	2
145900	19.412735	2
146100	19.465829	0
146300	19.518996	0
146500	19.572235	0
146700	19.625546	1
146900	19.678931	0
147100	19.732387	0
147300	19.785916	0
147500	19.839518	0
147700	19.893192	3
147900	19.946939	1
148100	20.000758	1
148300	20.054650	0
148500	20.108614	2
148700	20.162650	1
148900	20.216760	1
149100	20.270941	0
149300	20.325196	1
149500	20.379522	1
149700	20.433921	0
149900	20.488393	0
150100	20.542937	1
150300	20.597554	1
150500	20.652243	0
150700	20.707005	1
150900	20.761839	0
151100	20.816746	0
151300	20.871725	2
151500	20.926777	1
151700	20.981902	0
151900	21.037098	1
152100	21.092368	0
152300	21.147709	0
152500	21.203124	1
152700	21.258611	0
152900	21.314170	0
153100	21.369802	0
153300	21.425506	0
153500	21.481283	0
153700	21.537132	0
153900	21.593054	0
154100	21.649049	0
154300	21.705115	0
154500	21.761255	0
154700	21.817467	0
154900	21.873751	1
155100	21.930108	2
155300	21.986538	5
155500	22.043039	0
155700	22.099614	0
155900	22.156261	0
156100	22.212980	1
156300	22.269772	0
156500	22.326637	0
156700	22.383574	0
156900	22.440583	0
157100	22.497665	0
157300	22.554820	0
157500	22.612047	0
157700	22.669346	2
157900	22.726718	1
158100	22.784163	0
158300	22.841680	1
158500	22.899269	3
158700	22.956931	36
158900	23.014666	1109
159100	23.072473	3
159300	23.130353	1
159500	23.188305	1
159700	23.246329	2
159900	23.304426	0
160100	23.362596	2
160300	23.420838	1
160500	23.479153	1
160700	23.537540	0
160900	23.595999	1
161100	23.654532	2
161300	23.713136	0
161500	23.771813	1
161700	23.830563	1
161900	23.889385	0
162100	23.948280	249
162300	24.007247	76177
162500	24.066287	39
162700	24.125399	13
162900	24.184584	6
163100	24.243841	3
163300	24.303171	3
163500	24.362573	5
163700	24.422048	3
163900	24.481595	6
164100	24.541215	5
164300	24.600907	2
164500	24.660672	4
164700	24.720509	3
164900	24.780419	8
165100	24.840401	10
165300	24.900456	5
165500	24.960583	255
165700	25.020783	269405
165900	25.081055	203
166100	25.141400	55
166300	25.201817	33
166500	25.262307	14
166700	25.322869	17
166900	25.383504	10
167100	25.444212	13
167300	25.504992	7
167500	25.565844	4
167700	25.626769	5
167900	25.687766	7
168100	25.748836	5
168300	25.809978	20
168500	25.871193	3
168700	25.932481	6
168900	25.993841	187500
169100	26.055273	1928
169300	26.116778	299
169500	26.178356	106
169700	26.240006	47
169900	26.301728	30
170100	26.363523	21
170300	26.425390	21
170500	26.487330	19
170700	26.549343	17
170900	26.611428	13
171100	26.673585	7
171300	26.735815	2
171500	26.798118	4
171700	26.860493	1
171900	26.922941	3
172100	26.985461	12096
172300	27.048053	12688
172500	27.110718	25
172700	27.173456	13
172900	27.236266	5
173100	27.299148	1
173300	27.362104	5
173500	27.425131	8
173700	27.488231	2
173900	27.551404	3
174100	27.614649	4
174300	27.677967	2
174500	27.741357	1
174700	27.804819	5
174900	27.868354	2
175100	27.931962	10
175300	27.995642	1117
175500	28.059395	166
175700	28.123220	5
175900	28.187118	1
176100	28.251088	2
176300	28.315131	2
176500	28.379246	1
176700	28.443434	2
176900	28.507694	2
177100	28.572027	1
177300	28.636432	1
177500	28.700910	2
177700	28.765460	0
177900	28.830083	2
178100	28.894778	2
178300	28.959546	678
178500	29.024386	2996
178700	29.089299	5
178900	29.154284	5
179100	29.219342	1
179300	29.284472	1
179500	29.349675	0
179700	29.414950	0
179900	29.480298	3
180100	29.545718	4
180300	29.611211	2
180500	29.676777	7
180700	29.742415	1
180900	29.808125	3
181100	29.873908	2
181300	29.939763	7
181500	30.005691	1319
181700	30.071691	6
181900	30.137764	2
182100	30.203910	1
182300	30.270128	3
182500	30.336418	2
182700	30.402781	2
182900	30.469217	2
183100	30.535724	2
183300	30.602305	3
183500	30.668958	2
183700	30.735683	1
183900	30.802481	0
184100	30.869352	0
184300	30.936295	4
184500	31.003310	2454
184700	31.070398	11
184900	31.137559	1
185100	31.204792	3
185300	31.272097	2
185500	31.339475	0
185700	31.406926	3
185900	31.474449	3
186100	31.542045	1
186300	31.609713	2
186500	31.677453	2
186700	31.745266	4
186900	31.813152	2
187100	31.881110	0
187300	31.949141	2171
187500	32.017244	21672
187700	32.085419	8
187900	32.153668	8
188100	32.221988	0
188300	32.290381	3
188500	32.358847	2
188700	32.427385	2
188900	32.495996	0
189100	32.564679	2
189300	32.633435	1
189500	32.702263	3
189700	32.771164	2
189900	32.840137	0
190100	32.909182	2
190300	32.978301	5486
190500	33.047491	36
190700	33.116755	3
190900	33.186090	4
191100	33.255499	4
191300	33.324979	7
191500	33.394533	3
191700	33.464158	5
191900	33.533857	2
192100	33.603627	2
192300	33.673471	1
192500	33.743387	4
192700	33.813375	1
192900	33.883436	2
193100	33.953569	115
193300	34.023775	335
193500	34.094053	2
193700	34.164404	1
193900	34.234827	0
194100	34.305323	0
194300	34.375892	3
194500	34.446532	0
194700	34.517246	3
194900	34.588032	2
195100	34.658890	0
195300	34.729821	78
195500	34.800824	11
195700	34.871900	24
195900	34.943049	1914544
196100	35.014270	108592
196300	35.085563	1376
196500	35.156929	710
196700	35.228368	414
196900	35.299878	278
197100	35.371462	157
197300	35.443118	118
197500	35.514846	77
197700	35.586647	71
197900	35.658521	67
198100	35.730467	44
198300	35.802485	32
198500	35.874576	29
198700	35.946740	51
198900	36.018976	12334
199100	36.091285	29
199300	36.163666	18
199500	36.236119	19
199700	36.308645	10
199900	36.381244	14
200100	36.453915	11
200300	36.526658	9
200500	36.599475	9
200700	36.672363	10
200900	36.745324	27
201100	36.818358	4
201300	36.891464	73
201500	36.964643	657934
201700	37.037894	15498
201900	37.111217	616
202100	37.184614	221
202300	37.258082	131
202500	37.331623	71
202700	37.405237	54
202900	37.478923	37
203100	37.552682	28
203300	37.626513	24
203500	37.700417	15
203700	37.774393	11
203900	37.848442	14
204100	37.922563	14
204300	37.996757	9914
204500	38.071023	52
204700	38.145362	14
204900	38.219773	11
205100	38.294257	3
205300	38.368813	7
205500	38.443442	5
205700	38.518143	10
205900	38.592917	8
206100	38.667763	6
206300	38.742682	5
206500	38.817673	6
206700	38.892737	6
206900	38.967873	927
