# Binning: 200 channels
# Deadtime Correction: on
Channel	m/z	Intensity
100	0.000280	0
300	0.000520	85
500	0.000833	1
700	0.001220	0
900	0.001681	0
1100	0.002215	1
1300	0.002823	15
1500	0.003504	23
1700	0.004259	16
1900	0.005087	4
2100	0.005989	1
2300	0.006965	1
2500	0.008014	2
2700	0.009136	3
2900	0.010333	2
3100	0.011603	0
3300	0.012946	0
3500	0.014363	0
3700	0.015854	0
3900	0.017418	1
4100	0.019055	1
4300	0.020767	0
4500	0.022552	0
4700	0.024410	0
4900	0.026342	1
5100	0.028348	0
5300	0.030427	0
5500	0.032580	0
5700	0.034806	0
5900	0.037106	0
6100	0.039479	1
6300	0.041926	0
6500	0.044447	0
6700	0.047041	0
6900	0.049709	0
7100	0.052450	0
7300	0.055265	0
7500	0.058154	0
7700	0.061116	0
7900	0.064151	0
8100	0.067260	0
8300	0.070443	0
8500	0.073700	0
8700	0.077029	0
8900	0.080433	0
9100	0.083910	0
9300	0.087461	0
9500	0.091085	0
9700	0.094783	0
9900	0.098554	0
10100	0.102399	0
10300	0.106318	0
10500	0.110310	0
10700	0.114375	0
10900	0.118515	0
11100	0.122727	0
11300	0.127014	0
11500	0.131374	0
11700	0.135807	0
11900	0.140314	0
12100	0.144895	0
12300	0.149549	0
12500	0.154277	0
12700	0.159079	0
12900	0.163953	0
13100	0.168902	0
13300	0.173924	0
13500	0.179020	0
13700	0.184189	0
13900	0.189432	0
14100	0.194748	0
14300	0.200138	0
14500	0.205602	0
14700	0.211139	0
14900	0.216750	0
15100	0.222434	0
15300	0.228192	0
15500	0.234023	0
15700	0.239928	0
15900	0.245907	0
16100	0.251959	0
16300	0.258085	0
16500	0.264284	0
16700	0.270557	1
16900	0.276904	0
17100	0.283324	0
17300	0.289817	0
17500	0.296384	0
17700	0.303025	0
17900	0.309740	0
18100	0.316527	0
18300	0.323389	0
18500	0.330324	0
18700	0.337333	0
18900	0.344415	0
19100	0.351571	0
19300	0.358800	0
19500	0.366103	0
19700	0.373479	0
19900	0.380929	0
20100	0.388453	0
20300	0.396050	0
20500	0.403721	0
20700	0.411465	0
20900	0.419283	0
21100	0.427175	0
21300	0.435140	0
21500	0.443179	0
21700	0.451291	1
21900	0.459477	1
22100	0.467736	0
22300	0.476069	0
22500	0.484476	1
22700	0.492956	0
22900	0.501509	0
23100	0.510137	0
23300	0.518837	0
23500	0.527612	0
23700	0.536460	0
23900	0.545381	0
24100	0.554376	0
24300	0.563445	0
24500	0.572587	0
24700	0.581803	0
24900	0.591093	0
25100	0.600456	1
25300	0.609892	0
25500	0.619402	0
25700	0.628986	0
25900	0.638643	1
26100	0.648374	0
26300	0.658179	0
26500	0.668057	0
26700	0.678008	0
26900	0.688033	0
27100	0.698132	0
27300	0.708305	0
27500	0.718550	0
27700	0.728870	0
27900	0.739263	0
28100	0.749729	0
28300	0.760270	0
28500	0.770883	0
28700	0.781571	0
28900	0.792332	0
29100	0.803166	0
29300	0.814074	0
29500	0.825056	0
29700	0.836111	0
29900	0.847240	0
30100	0.858442	0
30300	0.869718	0
30500	0.881068	0
30700	0.892491	0
30900	0.903987	0
31100	0.915557	0
31300	0.927201	0
31500	0.938919	4
31700	0.950710	1
31900	0.962574	45
32100	0.974512	53
32300	0.986524	45
32500	0.998609	249
32700	1.010768	2164056
32900	1.023000	263
33100	1.035306	77
33300	1.047686	47
33500	1.060139	30
33700	1.072665	28
33900	1.085266	29
34100	1.097940	29
34300	1.110687	32
34500	1.123508	21
34700	1.136402	15
34900	1.149371	14
35100	1.162412	9
35300	1.175528	10
35500	1.188716	13
35700	1.201979	13
35900	1.215315	4
36100	1.228724	3
36300	1.242208	3
36500	1.255764	5
36700	1.269395	4
36900	1.283098	6
37100	1.296876	3
37300	1.310727	1
37500	1.324651	1
37700	1.338650	7
37900	1.352721	3
38100	1.366867	0
38300	1.381086	3
38500	1.395378	1
38700	1.409744	0
38900	1.424184	0
39100	1.438697	1
39300	1.453284	1
39500	1.467944	1
39700	1.482678	1
39900	1.497485	2
40100	1.512366	3
40300	1.527321	1
40500	1.542349	0
40700	1.557451	0
40900	1.572626	2
41100	1.587875	0
41300	1.603198	2
41500	1.618594	2
41700	1.634063	1
41900	1.649607	0
42100	1.665223	1
42300	1.680914	2
42500	1.696678	2
42700	1.712515	1
42900	1.728426	2
43100	1.744411	0
43300	1.760469	0
43500	1.776601	0
43700	1.792806	0
43900	1.809085	1
44100	1.825438	1
44300	1.841864	0
44500	1.858364	0
44700	1.874937	0
44900	1.891584	0
45100	1.908304	1
45300	1.925098	0
45500	1.941966	0
45700	1.958907	0
45900	1.975921	0
46100	1.993010	0
46300	2.010172	215
46500	2.027407	1
46700	2.044716	1
46900	2.062098	0
47100	2.079555	0
47300	2.097084	2
47500	2.114688	0
47700	2.132364	0
47900	2.150115	0
48100	2.167939	1
48300	2.185837	1
48500	2.203808	0
48700	2.221852	1
48900	2.239971	0
49100	2.258163	0
49300	2.276428	2
49500	2.294767	0
49700	2.313180	0
49900	2.331666	0
50100	2.350226	0
50300	2.368859	0
50500	2.387566	0
50700	2.406346	1
50900	2.425200	0
51100	2.444128	1
51300	2.463129	0
51500	2.482204	0
51700	2.501352	0
51900	2.520574	0
52100	2.539870	0
52300	2.559239	1
52500	2.578681	2
52700	2.598198	1
52900	2.617787	1
53100	2.637451	1
53300	2.657188	0
53500	2.676998	0
53700	2.696882	1
53900	2.716840	0
54100	2.736871	0
54300	2.756976	0
54500	2.777154	0
54700	2.797406	2
54900	2.817732	0
55100	2.838131	1
55300	2.858604	1
55500	2.879150	0
55700	2.899770	0
55900	2.920463	0
56100	2.941230	0
56300	2.962071	0
56500	2.982985	0
56700	3.003972	0
56900	3.025034	2
57100	3.046168	0
57300	3.067377	0
57500	3.088659	0
57700	3.110014	0
57900	3.131444	1
58100	3.152946	0
58300	3.174523	0
58500	3.196172	1
58700	3.217896	1
58900	3.239693	1
59100	3.261563	0
59300	3.283508	1
59500	3.305525	1
59700	3.327617	0
59900	3.349782	1
60100	3.372020	0
60300	3.394332	0
60500	3.416718	0
60700	3.439177	0
60900	3.461710	0
61100	3.484316	1
61300	3.506996	0
61500	3.529749	2
61700	3.552576	0
61900	3.575477	0
62100	3.598451	0
62300	3.621499	0
62500	3.644620	0
62700	3.667815	2
62900	3.691084	2
63100	3.714426	0
63300	3.737841	1
63500	3.761330	0
63700	3.784893	0
63900	3.808530	0
64100	3.832240	0
64300	3.856023	0
64500	3.879880	0
64700	3.903811	0
64900	3.927815	0
65100	3.951893	0
65300	3.976044	0
65500	4.000269	0
65700	4.024568	0
65900	4.048940	0
66100	4.073385	0
66300	4.097905	0
66500	4.122498	0
66700	4.147164	0
66900	4.171904	0
67100	4.196717	0
67300	4.221605	0
67500	4.246565	0
67700	4.271599	0
67900	4.296707	0
68100	4.321889	0
68300	4.347144	0
68500	4.372472	1
68700	4.397874	0
68900	4.423350	0
69100	4.448899	0
69300	4.474522	0
69500	4.500219	0
69700	4.525989	0
69900	4.551832	0
70100	4.577749	0
70300	4.603740	0
70500	4.629804	0
70700	4.655942	0
70900	4.682154	0
71100	4.708439	0
71300	4.734797	0
71500	4.761230	0
71700	4.787735	0
71900	4.814315	0
72100	4.840968	0
72300	4.867694	0
72500	4.894494	1
72700	4.921368	0
72900	4.948315	0
73100	4.975336	0
73300	5.002430	0
73500	5.029598	0
73700	5.056839	0
73900	5.084154	0
74100	5.111543	0
74300	5.139005	1
74500	5.166541	0
74700	5.194150	0
74900	5.221833	0
75100	5.249590	1
75300	5.277420	1
75500	5.305324	1
75700	5.333301	1
75900	5.361352	0
76100	5.389476	1
76300	5.417674	0
76500	5.445945	0
76700	5.474291	0
76900	5.502709	0
77100	5.531201	0
77300	5.559767	0
77500	5.588407	0
77700	5.617120	1
77900	5.645906	0
78100	5.674766	0
78300	5.703700	0
78500	5.732707	0
78700	5.761788	0
78900	5.790943	0
79100	5.820171	0
79300	5.849472	0
79500	5.878847	0
79700	5.908296	0
79900	5.937818	0
80100	5.967414	0
80300	5.997083	0
80500	6.026826	6
80700	6.056643	0
80900	6.086533	0
81100	6.116497	0
81300	6.146534	0
81500	6.176645	0
81700	6.206830	0
81900	6.237088	0
82100	6.267419	0
82300	6.297824	0
82500	6.328303	0
82700	6.358855	1
82900	6.389481	0
83100	6.420181	0
83300	6.450954	0
83500	6.481800	0
83700	6.512721	0
83900	6.543714	2
84100	6.574782	0
84300	6.605923	1
84500	6.637137	1
84700	6.668425	0
84900	6.699787	1
85100	6.731222	0
85300	6.762731	1
85500	6.794313	1
85700	6.825969	0
85900	6.857699	0
86100	6.889502	1
86300	6.921378	2
86500	6.953329	0
86700	6.985352	0
86900	7.017450	132
87100	7.049621	2
87300	7.081865	1
87500	7.114183	3
87700	7.146575	1
87900	7.179040	2
88100	7.211579	0
88300	7.244191	1
88500	7.276877	1
88700	7.309637	1
88900	7.342470	0
89100	7.375377	1
89300	7.408357	0
89500	7.441411	1
89700	7.474538	0
89900	7.507739	3
90100	7.541014	1
90300	7.574362	0
90500	7.607784	0
90700	7.641279	0
90900	7.674848	0
91100	7.708490	0
91300	7.742206	0
91500	7.775996	0
91700	7.809859	0
91900	7.843796	0
92100	7.877806	0
92300	7.911890	0
92500	7.946047	0
92700	7.980278	0
92900	8.014583	34
93100	8.048961	4
93300	8.083413	0
93500	8.117938	0
93700	8.152537	0
93900	8.187209	0
94100	8.221955	0
94300	8.256775	0
94500	8.291668	0
94700	8.326635	0
94900	8.361675	0
95100	8.396789	0
95300	8.431977	0
95500	8.467238	0
95700	8.502572	0
95900	8.537981	0
96100	8.573462	0
96300	8.609018	0
96500	8.644647	0
96700	8.680349	0
96900	8.716125	0
97100	8.751975	0
97300	8.787898	0
97500	8.823895	0
97700	8.859965	0
97900	8.896109	0
98100	8.932327	0
98300	8.968618	0
98500	9.004982	0
98700	9.041421	22
98900	9.077933	0
99100	9.114518	0
99300	9.151177	0
99500	9.187909	0
99700	9.224716	0
99900	9.261595	0
100100	9.298548	0
100300	9.335575	0
100500	9.372676	0
100700	9.409850	0
100900	9.447097	0
101100	9.484418	0
101300	9.521813	0
101500	9.559281	1
101700	9.596823	0
101900	9.634439	1
102100	9.672128	0
102300	9.709890	0
102500	9.747726	0
102700	9.785636	0
102900	9.823619	0
103100	9.861676	0
103300	9.899807	0
103500	9.938011	0
103700	9.976288	0
103900	10.014639	4
104100	10.053064	0
104300	10.091563	0
104500	10.130134	0
104700	10.168780	0
104900	10.207499	0
105100	10.246292	0
105300	10.285158	0
105500	10.324097	0
105700	10.363111	0
105900	10.402198	0
106100	10.441358	0
106300	10.480592	0
106500	10.519900	1
106700	10.559281	0
106900	10.598736	0
107100	10.638264	0
107300	10.677866	1
107500	10.717542	0
107700	10.757291	0
107900	10.797113	0
108100	10.837010	0
108300	10.876979	0
108500	10.917023	0
108700	10.957140	0
108900	10.997330	32
109100	11.037594	4
109300	11.077932	0
109500	11.118343	0
109700	11.158828	0
109900	11.199386	0
110100	11.240018	0
110300	11.280724	0
110500	11.321503	0
110700	11.362356	0
110900	11.403282	2
111100	11.444282	0
111300	11.485355	0
111500	11.526502	0
111700	11.567723	0
111900	11.609017	0
112100	11.650385	0
112300	11.691826	0
112500	11.733341	0
112700	11.774929	0
112900	11.816591	1
113100	11.858327	0
113300	11.900136	0
113500	11.942019	0
113700	11.983975	40609
113900	12.026005	1122
114100	12.068108	1
114300	12.110285	2
114500	12.152536	2
114700	12.194860	0
114900	12.237258	3
115100	12.279729	4
115300	12.322274	3
115500	12.364892	2
115700	12.407584	1
115900	12.450350	3
116100	12.493189	3
116300	12.536102	2
116500	12.579088	2
116700	12.622148	2
116900	12.665282	0
117100	12.708489	4
117300	12.751769	3
117500	12.795123	1
117700	12.838551	2
117900	12.882053	3
118100	12.925628	2
118300	12.969276	17
118500	13.012998	122633
118700	13.056794	29
118900	13.100663	2
119100	13.144606	2
119300	13.188622	6
119500	13.232712	5
119700	13.276876	9
119900	13.321113	4
120100	13.365423	2
120300	13.409808	3
120500	13.454265	4
120700	13.498797	2
120900	13.543402	34
121100	13.588080	3
121300	13.632832	2
121500	13.677658	3
121700	13.722557	0
121900	13.767530	3
122100	13.812577	5
122300	13.857697	7
122500	13.902890	3
122700	13.948157	1
122900	13.993498	29758
123100	14.038912	30945
123300	14.084400	17
123500	14.129961	5
123700	14.175596	9
123900	14.221305	8
124100	14.267087	5
124300	14.312943	8
124500	14.358872	4
124700	14.404875	2
124900	14.450951	3
125100	14.497101	1
125300	14.543325	0
125500	14.589622	53
125700	14.635993	2
125900	14.682437	4
126100	14.728955	0
126300	14.775547	1
126500	14.822212	2
126700	14.868950	9
126900	14.915762	4
127100	14.962648	4
127300	15.009608	107806
127500	15.056640	1052
127700	15.103747	97
127900	15.150927	41
128100	15.198181	33
128300	15.245508	26
128500	15.292909	10
128700	15.340383	8
128900	15.387931	11
129100	15.435552	16
129300	15.483247	8
129500	15.531016	11
129700	15.578858	3
129900	15.626774	106
130100	15.674763	28
130300	15.722826	9
130500	15.770963	6
130700	15.819173	26
130900	15.867457	12
131100	15.915814	10
131300	15.964245	459
131500	16.012749	688718
131700	16.061327	64
131900	16.109979	31
132100	16.158704	18
132300	16.207502	12
132500	16.256375	19
132700	16.305320	11
132900	16.354340	7
133100	16.403433	13
133300	16.452599	10
133500	16.501839	11
133700	16.551153	12
133900	16.600540	6
134100	16.650001	10
134300	16.699536	10
134500	16.749144	8
134700	16.798825	7
134900	16.848580	22
135100	16.898409	6
135300	16.948311	31
135500	16.998287	630556
135700	17.048337	736
135900	17.098460	39
136100	17.148656	33
136300	17.198926	35
136500	17.249270	31
136700	17.299688	28
136900	17.350178	19
137100	17.400743	15
137300	17.451381	29
137500	17.502092	24
137700	17.552878	16
137900	17.603736	20
138100	17.654669	6
138300	17.705675	128
138500	17.756754	20
138700	17.807907	11
138900	17.859134	5
139100	17.910434	7
139300	17.961808	9
139500	18.013255	1557
139700	18.064776	3
139900	18.116371	5
140100	18.168039	4
140300	18.219780	5
140500	18.271595	10
140700	18.323484	3
140900	18.375447	6
141100	18.427483	9
141300	18.479592	7
141500	18.531775	3
141700	18.584032	0
141900	18.636362	3
142100	18.688766	4
142300	18.741243	0
142500	18.793794	8
142700	18.846419	3
142900	18.899117	4
143100	18.951888	6
143300	19.004734	42481
143500	19.057653	48
143700	19.110645	11
143900	19.163711	6
144100	19.216850	2
144300	19.270064	3
144500	19.323350	1
144700	19.376711	2
144900	19.430144	3
145100	19.483652	2
145300	19.537233	1
145500	19.590887	0
145700	19.644616	3
145900	19.698417	3
146100	19.752293	1
146300	19.806241	0
146500	19.860264	0
146700	19.914360	4
146900	19.968529	2
147100	20.022773	7
147300	20.077089	1
147500	20.131480	2
147700	20.185944	1
147900	20.240481	0
148100	20.295092	1
148300	20.349777	0
148500	20.404535	0
148700	20.459367	0
148900	20.514272	0
149100	20.569251	3
149300	20.624303	3
149500	20.679429	0
149700	20.734629	2
149900	20.789902	3
150100	20.845249	0
150300	20.900669	1
150500	20.956163	1
150700	21.011731	12
150900	21.067372	1
151100	21.123086	1
151300	21.178875	3
151500	21.234736	0
151700	21.290672	0
151900	21.346681	2
152100	21.402763	1
152300	21.458919	1
152500	21.515149	0
152700	21.571452	0
152900	21.627829	0
153100	21.684279	1
153300	21.740803	2
153500	21.797401	1
153700	21.854072	0
153900	21.910817	1
154100	21.967635	0
154300	22.024527	26
154500	22.081492	1
154700	22.138531	0
154900	22.195644	0
155100	22.252830	0
155300	22.310089	1
155500	22.367423	0
155700	22.424829	0
155900	22.482310	0
156100	22.539864	2
156300	22.597491	0
156500	22.655193	1
156700	22.712967	1
156900	22.770816	0
157100	22.828737	0
157300	22.886733	0
157500	22.944802	1
157700	23.002944	1563
157900	23.061161	31
158100	23.119450	1
158300	23.177814	2
158500	23.236251	2
158700	23.294761	0
158900	23.353345	1
159100	23.412003	1
159300	23.470734	1
159500	23.529539	0
159700	23.588417	2
159900	23.647369	0
160100	23.706394	2
160300	23.765493	5
160500	23.824666	3
160700	23.883912	2
160900	23.943232	290
161100	24.002625	121989
161300	24.062092	99
161500	24.121633	22
161700	24.181247	7
161900	24.240934	7
162100	24.300696	8
162300	24.360530	4
162500	24.420439	6
162700	24.480421	4
162900	24.540476	8
163100	24.600605	8
163300	24.660808	5
163500	24.721084	3
163700	24.781434	15
163900	24.841857	15
164100	24.902354	8
164300	24.962925	480
164500	25.023569	512504
164700	25.084287	308
164900	25.145078	82
165100	25.205943	47
165300	25.266881	42
165500	25.327893	20
165700	25.388978	19
165900	25.450138	18
166100	25.511370	14
166300	25.572677	10
166500	25.634056	9
166700	25.695510	7
166900	25.757037	4
167100	25.818637	15
167300	25.880312	11
167500	25.942059	25
167700	26.003880	346999
167900	26.065775	3513
168100	26.127744	650
168300	26.189786	313
168500	26.251901	153
168700	26.314091	80
168900	26.376353	58
169100	26.438690	35
169300	26.501099	26
169500	26.563583	30
169700	26.626140	15
169900	26.688771	15
170100	26.751475	5
170300	26.814252	13
170500	26.877104	2
170700	26.940029	10
170900	27.003027	48933
171100	27.066099	403
171300	27.129245	39
171500	27.192464	17
171700	27.255757	13
171900	27.319123	11
172100	27.382563	11
172300	27.446076	15
172500	27.509664	6
172700	27.573324	4
172900	27.637058	4
173100	27.700866	3
173300	27.764748	9
173500	27.828702	2
173700	27.892731	7
173900	27.956833	991
174100	28.021009	1253
174300	28.085258	4
174500	28.149581	8
174700	28.213977	2
174900	28.278447	3
175100	28.342991	1
175300	28.407608	1
175500	28.472298	2
175700	28.537063	2
175900	28.601900	3
176100	28.666812	1
176300	28.731797	3
176500	28.796855	4
176700	28.861987	3
176900	28.927193	98
177100	28.992472	7148
177300	29.057825	22
177500	29.123252	1
177700	29.188752	3
177900	29.254325	2
178100	29.319972	3
178300	29.385693	6
178500	29.451487	2
178700	29.517355	3
178900	29.583297	8
179100	29.649312	3
179300	29.715400	6
179500	29.781562	6
179700	29.847798	3
179900	29.914107	4
180100	29.980490	1269
180300	30.046947	34
180500	30.113477	1
180700	30.180080	10
180900	30.246757	3
181100	30.313508	4
181300	30.380333	1
181500	30.447230	2
181700	30.514202	5
181900	30.581247	7
182100	30.648366	1
182300	30.715558	3
182500	30.782824	5
182700	30.850163	5
182900	30.917576	3
183100	30.985062	2302
183300	31.052622	2378
183500	31.120256	8
183700	31.187963	1
183900	31.255744	3
184100	31.323598	2
184300	31.391526	0
184500	31.459528	0
184700	31.527603	4
184900	31.595751	1
185100	31.663974	1
185300	31.732269	2
185500	31.800639	3
185700	31.869082	1
185900	31.937598	1092
186100	32.006188	31104
186300	32.074852	11
186500	32.143589	7
186700	32.212400	7
186900	32.281285	3
187100	32.350243	4
187300	32.419274	6
187500	32.488379	1
187700	32.557558	3
187900	32.626810	1
188100	32.696136	4
188300	32.765535	5
188500	32.835008	2
188700	32.904555	2
188900	32.974175	9510
189100	33.043869	144
189300	33.113636	11
189500	33.183477	4
189700	33.253391	6
189900	33.323379	12
190100	33.393441	2
190300	33.463576	1
190500	33.533785	6
190700	33.604067	5
190900	33.674423	3
191100	33.744852	5
191300	33.815355	6
191500	33.885932	3
191700	33.956582	221
191900	34.027306	492
192100	34.098103	4
192300	34.168974	2
192500	34.239919	0
192700	34.310937	2
192900	34.382028	2
193100	34.453193	2
193300	34.524432	12
193500	34.595745	3
193700	34.667130	4
193900	34.738590	217
194100	34.810123	18
194300	34.881730	162
194500	34.953410	4507850
194700	35.025164	5317
194900	35.096991	199
195100	35.168892	410
195300	35.240866	597
195500	35.312914	586
195700	35.385036	419
195900	35.457231	294
196100	35.529500	204
196300	35.601843	170
196500	35.674258	148
196700	35.746748	109
196900	35.819311	98
197100	35.891948	81
197300	35.964658	16277
197500	36.037442	8428
197700	36.110299	62
197900	36.183230	65
198100	36.256235	59
198300	36.329313	47
198500	36.402465	34
198700	36.475690	37
198900	36.548989	25
199100	36.622361	22
199300	36.695807	67
199500	36.769327	35
199700	36.842920	25
199900	36.916586	992
200100	36.990327	2102949
200300	37.064141	2089
200500	37.138028	991
200700	37.211989	561
200900	37.286024	341
201100	37.360132	197
201300	37.434313	144
201500	37.508569	93
201700	37.582898	92
201900	37.657300	78
202100	37.731776	38
202300	37.806326	30
202500	37.880949	29
202700	37.955646	191
202900	38.030416	20464
203100	38.105260	39
203300	38.180177	35
203500	38.255168	25
203700	38.330233	25
203900	38.405371	22
204100	38.480583	13
204300	38.555868	30
204500	38.631227	16
204700	38.706660	15
204900	38.782166	14
205100	38.857745	14
205300	38.933398	377
205500	39.009125	14745
205700	39.084926	90
205900	39.160799	25
206100	39.236747	15
206300	39.312768	12
