# Binning: 200 channels
# Deadtime Correction: on
Channel	m/z	Intensity
100	0.000228	0
300	0.000448	401
500	0.000742	7
700	0.001109	0
900	0.001550	0
1100	0.002064	0
1300	0.002652	16
1500	0.003313	16
1700	0.004048	3
1900	0.004856	0
2100	0.005739	0
2300	0.006694	0
2500	0.007723	0
2700	0.008826	0
2900	0.010002	0
3100	0.011252	0
3300	0.012576	0
3500	0.013973	0
3700	0.015443	0
3900	0.016987	0
4100	0.018605	0
4300	0.020296	0
4500	0.022061	0
4700	0.023899	0
4900	0.025811	0
5100	0.027797	0
5300	0.029856	0
5500	0.031988	0
5700	0.034195	0
5900	0.036474	0
6100	0.038828	0
6300	0.041254	0
6500	0.043755	0
6700	0.046329	0
6900	0.048976	0
7100	0.051697	0
7300	0.054492	0
7500	0.057360	0
7700	0.060302	0
7900	0.063317	0
8100	0.066406	0
8300	0.069569	0
8500	0.072805	0
8700	0.076114	0
8900	0.079497	0
9100	0.082954	0
9300	0.086484	0
9500	0.090088	0
9700	0.093766	0
9900	0.097516	0
10100	0.101341	0
10300	0.105239	0
10500	0.109211	0
10700	0.113256	0
10900	0.117375	0
11100	0.121567	0
11300	0.125833	0
11500	0.130172	0
11700	0.134585	0
11900	0.139072	0
12100	0.143632	0
12300	0.148266	0
12500	0.152973	0
12700	0.157754	0
12900	0.162608	0
13100	0.167536	0
13300	0.172537	0
13500	0.177612	0
13700	0.182761	0
13900	0.187983	0
14100	0.193279	0
14300	0.198648	0
14500	0.204091	0
14700	0.209607	0
14900	0.215197	0
15100	0.220861	0
15300	0.226598	0
15500	0.232409	0
15700	0.238293	0
15900	0.244251	0
16100	0.250282	0
16300	0.256387	0
16500	0.262565	0
16700	0.268817	0
16900	0.275143	0
17100	0.281542	0
17300	0.288015	0
17500	0.294561	0
17700	0.301181	0
17900	0.307874	0
18100	0.314641	0
18300	0.321482	0
18500	0.328396	0
18700	0.335383	0
18900	0.342444	0
19100	0.349579	0
19300	0.356787	0
19500	0.364069	0
19700	0.371425	0
19900	0.378854	0
20100	0.386356	0
20300	0.393932	0
20500	0.401582	0
20700	0.409305	0
20900	0.417102	0
21100	0.424972	0
21300	0.432916	0
21500	0.440934	0
21700	0.449025	0
21900	0.457190	0
22100	0.465428	0
22300	0.473739	0
22500	0.482125	0
22700	0.490584	0
22900	0.499116	0
23100	0.507722	0
23300	0.516401	0
23500	0.525155	0
23700	0.533981	0
23900	0.542881	0
24100	0.551855	0
24300	0.560902	0
24500	0.570023	0
24700	0.579218	0
24900	0.588486	0
25100	0.597827	0
25300	0.607243	0
25500	0.616731	0
25700	0.626294	0
25900	0.635929	0
26100	0.645639	0
26300	0.655422	0
26500	0.665278	0
26700	0.675208	0
26900	0.685212	0
27100	0.695289	0
27300	0.705440	0
27500	0.715664	0
27700	0.725962	0
27900	0.736333	0
28100	0.746778	0
28300	0.757297	0
28500	0.767889	0
28700	0.778555	0
28900	0.789294	0
29100	0.800107	0
29300	0.810993	0
29500	0.821953	0
29700	0.832987	0
29900	0.844094	1
30100	0.855274	1
30300	0.866528	0
30500	0.877856	0
30700	0.889257	0
30900	0.900732	1
31100	0.912281	0
31300	0.923903	0
31500	0.935598	4
31700	0.947367	0
31900	0.959210	7
32100	0.971126	64
32300	0.983116	102
32500	0.995179	56
32700	1.007316	3531579
32900	1.019526	2551
33100	1.031811	44
33300	1.044168	55
33500	1.056599	51
33700	1.069104	42
33900	1.081682	32
34100	1.094334	35
34300	1.107059	27
34500	1.119858	49
34700	1.132731	27
34900	1.145677	30
35100	1.158697	16
35300	1.171790	21
35500	1.184956	17
35700	1.198197	10
35900	1.211511	6
36100	1.224898	6
36300	1.238359	6
36500	1.251894	4
36700	1.265502	3
36900	1.279183	1
37100	1.292939	1
37300	1.306767	3
37500	1.320670	0
37700	1.334646	2
37900	1.348695	1
38100	1.362818	2
38300	1.377015	0
38500	1.391285	1
38700	1.405629	1
38900	1.420046	1
39100	1.434537	2
39300	1.449101	3
39500	1.463739	2
39700	1.478451	0
39900	1.493236	0
40100	1.508095	0
40300	1.523027	0
40500	1.538033	0
40700	1.553112	0
40900	1.568265	0
41100	1.583491	1
41300	1.598791	0
41500	1.614165	0
41700	1.629612	0
41900	1.645133	1
42100	1.660727	1
42300	1.676395	0
42500	1.692136	1
42700	1.707951	0
42900	1.723840	0
43100	1.739802	0
43300	1.755837	1
43500	1.771946	0
43700	1.788129	0
43900	1.804386	1
44100	1.820715	0
44300	1.837119	0
44500	1.853596	0
44700	1.870146	0
44900	1.886771	1
45100	1.903468	0
45300	1.920239	0
45500	1.937084	0
45700	1.954003	0
45900	1.970995	0
46100	1.988060	1
46300	2.005199	0
46500	2.022412	444
46700	2.039698	0
46900	2.057058	0
47100	2.074491	0
47300	2.091998	3
47500	2.109578	0
47700	2.127232	0
47900	2.144960	0
48100	2.162761	0
48300	2.180635	0
48500	2.198584	0
48700	2.216605	0
48900	2.234701	1
49100	2.252870	1
49300	2.271112	0
49500	2.289428	1
49700	2.307818	1
49900	2.326281	0
50100	2.344817	0
50300	2.363428	0
50500	2.382112	0
50700	2.400869	0
50900	2.419700	0
51100	2.438604	0
51300	2.457582	0
51500	2.476634	0
51700	2.495759	0
51900	2.514958	0
52100	2.534230	1
52300	2.553576	0
52500	2.572996	0
52700	2.592489	0
52900	2.612055	0
53100	2.631695	0
53300	2.651409	0
53500	2.671196	0
53700	2.691057	0
53900	2.710991	0
54100	2.730999	0
54300	2.751081	0
54500	2.771236	2
54700	2.791465	1
54900	2.811767	0
55100	2.832142	0
55300	2.852592	0
55500	2.873115	2
55700	2.893711	1
55900	2.914381	0
56100	2.935124	0
56300	2.955942	0
56500	2.976832	1
56700	2.997796	0
56900	3.018834	0
57100	3.039946	0
57300	3.061130	1
57500	3.082389	1
57700	3.103721	0
57900	3.125127	0
58100	3.146606	1
58300	3.168158	0
58500	3.189785	0
58700	3.211484	1
58900	3.233258	1
59100	3.255105	1
59300	3.277025	0
59500	3.299019	0
59700	3.321087	1
59900	3.343228	5
60100	3.365443	0
60300	3.387731	0
60500	3.410093	1
60700	3.432529	0
60900	3.455038	0
61100	3.477620	1
61300	3.500276	0
61500	3.523006	0
61700	3.545809	0
61900	3.568686	0
62100	3.591636	0
62300	3.614660	0
62500	3.637758	0
62700	3.660929	0
62900	3.684173	2
63100	3.707492	6
63300	3.730883	0
63500	3.754349	0
63700	3.777887	0
63900	3.801500	0
64100	3.825186	0
64300	3.848945	0
64500	3.872778	0
64700	3.896685	0
64900	3.920665	0
65100	3.944719	0
65300	3.968846	0
65500	3.993047	1
65700	4.017322	2
65900	4.041670	1
66100	4.066091	0
66300	4.090587	0
66500	4.115155	1
66700	4.139798	0
66900	4.164513	0
67100	4.189303	0
67300	4.214166	0
67500	4.239102	0
67700	4.264112	2
67900	4.289196	0
68100	4.314353	0
68300	4.339584	0
68500	4.364888	0
68700	4.390266	0
68900	4.415718	1
69100	4.441243	2
69300	4.466841	1
69500	4.492513	0
69700	4.518259	0
69900	4.544078	0
70100	4.569971	3
70300	4.595937	0
70500	4.621977	1
70700	4.648091	0
70900	4.674278	0
71100	4.700538	0
71300	4.726873	0
71500	4.753280	0
71700	4.779762	0
71900	4.806316	0
72100	4.832945	0
72300	4.859647	0
72500	4.886422	0
72700	4.913271	0
72900	4.940194	0
73100	4.967190	0
73300	4.994260	1
73500	5.021403	0
73700	5.048620	1
73900	5.075911	0
74100	5.103275	1
74300	5.130712	1
74500	5.158224	0
74700	5.185808	0
74900	5.213467	1
75100	5.241198	0
75300	5.269004	1
75500	5.296883	0
75700	5.324835	1
75900	5.352861	1
76100	5.380961	0
76300	5.409134	1
76500	5.437381	0
76700	5.465701	0
76900	5.494095	0
77100	5.522563	0
77300	5.551104	0
77500	5.579718	0
77700	5.608406	0
77900	5.637168	0
78100	5.666003	0
78300	5.694912	0
78500	5.723894	1
78700	5.752950	0
78900	5.782080	0
79100	5.811283	0
79300	5.840559	1
79500	5.869910	0
79700	5.899333	0
79900	5.928831	1
80100	5.958401	1
80300	5.988046	0
80500	6.017764	2
80700	6.047555	0
80900	6.077421	0
81100	6.107359	1
81300	6.137371	0
81500	6.167457	0
81700	6.197617	1
81900	6.227849	0
82100	6.258156	0
82300	6.288536	0
82500	6.318990	1
82700	6.349517	1
82900	6.380117	2
83100	6.410792	1
83300	6.441539	0
83500	6.472361	1
83700	6.503256	1
83900	6.534224	1
84100	6.565266	0
84300	6.596382	1
84500	6.627571	1
84700	6.658834	2
84900	6.690170	1
85100	6.721580	0
85300	6.753064	1
85500	6.784621	3
85700	6.816251	0
85900	6.847955	1
86100	6.879733	2
86300	6.911584	1
86500	6.943509	1
86700	6.975507	1
86900	7.007579	48
87100	7.039725	6
87300	7.071944	2
87500	7.104237	0
87700	7.136603	2
87900	7.169042	1
88100	7.201556	1
88300	7.234143	0
88500	7.266803	3
88700	7.299537	1
88900	7.332345	2
89100	7.365226	1
89300	7.398180	1
89500	7.431209	0
89700	7.464310	1
89900	7.497486	2
90100	7.530735	0
90300	7.564057	0
90500	7.597453	1
90700	7.630923	1
90900	7.664466	0
91100	7.698083	0
91300	7.731773	0
91500	7.765537	0
91700	7.799374	0
91900	7.833285	0
92100	7.867269	0
92300	7.901328	0
92500	7.935459	0
92700	7.969664	1
92900	8.003943	0
93100	8.038295	14
93300	8.072721	0
93500	8.107221	0
93700	8.141794	0
93900	8.176440	0
94100	8.211161	0
94300	8.245954	1
94500	8.280821	0
94700	8.315762	0
94900	8.350777	1
95100	8.385865	0
95300	8.421026	0
95500	8.456261	0
95700	8.491570	0
95900	8.526952	0
96100	8.562408	1
96300	8.597937	0
96500	8.633540	1
96700	8.669216	0
96900	8.704966	0
97100	8.740790	0
97300	8.776687	0
97500	8.812658	0
97700	8.848702	0
97900	8.884820	0
98100	8.921011	0
98300	8.957276	0
98500	8.993614	0
98700	9.030026	6
98900	9.066512	0
99100	9.103071	0
99300	9.139704	0
99500	9.176410	0
99700	9.213190	0
99900	9.250043	0
100100	9.286970	0
100300	9.323971	0
100500	9.361045	0
100700	9.398192	0
100900	9.435414	0
101100	9.472708	0
101300	9.510077	0
101500	9.547519	0
101700	9.585034	0
101900	9.622623	1
102100	9.660286	0
102300	9.698022	0
102500	9.735831	0
102700	9.773715	1
102900	9.811671	0
103100	9.849702	0
103300	9.887806	0
103500	9.925983	0
103700	9.964234	0
103900	10.002559	8
104100	10.040957	0
104300	10.079429	0
104500	10.117974	0
104700	10.156593	0
104900	10.195285	0
105100	10.234051	0
105300	10.272891	0
105500	10.311804	0
105700	10.350791	0
105900	10.389851	0
106100	10.428985	0
106300	10.468192	0
106500	10.507473	1
106700	10.546827	1
106900	10.586256	0
107100	10.625757	0
107300	10.665332	0
107500	10.704981	0
107700	10.744703	1
107900	10.784499	0
108100	10.824369	0
108300	10.864311	0
108500	10.904328	0
108700	10.944418	3
108900	10.984582	0
109100	11.024819	34
109300	11.065130	1
109500	11.105514	1
109700	11.145972	0
109900	11.186503	0
110100	11.227108	0
110300	11.267787	1
110500	11.308539	1
110700	11.349365	0
110900	11.390264	0
111100	11.431237	1
111300	11.472283	1
111500	11.513403	0
111700	11.554597	1
111900	11.595864	0
112100	11.637204	0
112300	11.678618	0
112500	11.720106	1
112700	11.761667	1
112900	11.803302	0
113100	11.845011	1
113300	11.886793	0
113500	11.928648	2
113700	11.970577	174
113900	12.012580	99065
114100	12.054656	8
114300	12.096806	10
114500	12.139029	5
114700	12.181326	2
114900	12.223697	8
115100	12.266141	1
115300	12.308658	6
115500	12.351250	5
115700	12.393914	5
115900	12.436653	3
116100	12.479464	5
116300	12.522350	3
116500	12.565309	6
116700	12.608341	9
116900	12.651447	2
117100	12.694627	4
117300	12.737880	5
117500	12.781207	8
117700	12.824607	4
117900	12.868081	8
118100	12.911629	11
118300	12.955250	9
118500	12.998944	321633
118700	13.042712	146
118900	13.086554	12
119100	13.130469	10
119300	13.174458	16
119500	13.218521	17
119700	13.262656	15
119900	13.306866	9
120100	13.351149	6
120300	13.395506	11
120500	13.439936	8
120700	13.484440	6
120900	13.529017	57
121100	13.573668	15
121300	13.618392	4
121500	13.663190	6
121700	13.708062	5
121900	13.753007	4
122100	13.798025	12
122300	13.843118	5
122500	13.888283	4
122700	13.933523	6
122900	13.978836	8
123100	14.024222	106374
123300	14.069682	26
123500	14.115216	21
123700	14.160823	11
123900	14.206504	16
124100	14.252258	9
124300	14.298086	9
124500	14.343987	7
124700	14.389962	6
124900	14.436011	6
125100	14.482133	4
125300	14.528328	6
125500	14.574598	129
125700	14.620940	17
125900	14.667357	8
126100	14.713847	3
126300	14.760410	6
126500	14.807047	4
126700	14.853758	2
126900	14.900542	6
127100	14.947400	1
127300	14.994331	1361
127500	15.041336	136887
127700	15.088414	186
127900	15.135566	79
128100	15.182791	42
128300	15.230090	30
128500	15.277463	20
128700	15.324909	23
128900	15.372429	16
129100	15.420022	11
129300	15.467689	11
129500	15.515430	10
129700	15.563244	12
129900	15.611131	11
130100	15.659092	172
130300	15.707127	12
130500	15.755235	7
130700	15.803417	8
130900	15.851672	15
131100	15.900001	3
131300	15.948404	153
131500	15.996880	1023401
131700	16.045429	2079
131900	16.094052	34
132100	16.142749	28
132300	16.191519	25
132500	16.240363	14
132700	16.289281	12
132900	16.338272	19
133100	16.387336	20
133300	16.436474	12
133500	16.485686	17
133700	16.534971	10
133900	16.584330	18
134100	16.633762	16
134300	16.683268	11
134500	16.732848	11
134700	16.782501	5
134900	16.832227	8
135100	16.882027	4
135300	16.931901	2
135500	16.981848	835206
135700	17.031869	37983
135900	17.081963	71
136100	17.132131	49
136300	17.182373	28
136500	17.232688	32
136700	17.283077	48
136900	17.333539	36
137100	17.384075	26
137300	17.434684	30
137500	17.485367	15
137700	17.536123	11
137900	17.586953	15
138100	17.637857	14
138300	17.688834	195
138500	17.739884	31
138700	17.791009	9
138900	17.842206	11
139100	17.893478	9
139300	17.944823	16
139500	17.996241	2356
139700	18.047733	8
139900	18.099299	3
140100	18.150938	8
140300	18.202651	9
140500	18.254437	4
140700	18.306297	5
140900	18.358230	5
141100	18.410237	5
141300	18.462318	9
141500	18.514472	3
141700	18.566699	3
141900	18.619001	2
142100	18.671375	5
142300	18.723824	3
142500	18.776346	2
142700	18.828941	5
142900	18.881610	4
143100	18.934353	7
143300	18.987169	39905
143500	19.040059	1033
143700	19.093022	9
143900	19.146059	7
144100	19.199169	4
144300	19.252353	5
144500	19.305610	2
144700	19.358942	2
144900	19.412346	4
145100	19.465824	2
145300	19.519376	2
145500	19.573001	4
145700	19.626700	5
145900	19.680473	0
146100	19.734319	2
146300	19.788238	1
146500	19.842231	5
146700	19.896298	3
146900	19.950438	0
147100	20.004652	4
147300	20.058939	0
147500	20.113300	2
147700	20.167735	2
147900	20.222243	3
148100	20.276824	1
148300	20.331480	1
148500	20.386208	0
148700	20.441011	3
148900	20.495886	1
149100	20.550836	2
149300	20.605859	1
149500	20.660955	0
149700	20.716125	1
149900	20.771369	0
150100	20.826686	1
150300	20.882077	1
150500	20.937541	0
150700	20.993079	1
150900	21.048691	2
151100	21.104376	0
151300	21.160134	0
151500	21.215966	0
151700	21.271872	0
151900	21.327851	0
152100	21.383904	0
152300	21.440031	0
152500	21.496231	0
152700	21.552504	0
152900	21.608851	0
153100	21.665272	1
153300	21.721766	4
153500	21.778334	1
153700	21.834975	4
153900	21.891690	2
154100	21.948478	1
154300	22.005340	11
154500	22.062276	14
154700	22.119285	2
154900	22.176368	4
155100	22.233524	1
155300	22.290754	1
155500	22.348057	3
155700	22.405434	1
155900	22.462884	0
156100	22.520408	1
156300	22.578006	1
156500	22.635677	0
156700	22.693422	2
156900	22.751240	0
157100	22.809132	1
157300	22.867098	1
157500	22.925136	0
157700	22.983249	1220
157900	23.041435	79
158100	23.099695	5
158300	23.158028	1
158500	23.216435	2
158700	23.274915	2
158900	23.333469	3
159100	23.392096	1
159300	23.450797	1
159500	23.509572	1
159700	23.568420	0
159900	23.627342	1
160100	23.686337	0
160300	23.745406	1
160500	23.804548	1
160700	23.863764	1
160900	23.923054	57
161100	23.982417	171894
161300	24.041853	539
161500	24.101364	24
161700	24.160947	13
161900	24.220605	10
162100	24.280336	12
162300	24.340140	16
162500	24.400018	15
162700	24.459970	15
162900	24.519995	13
163100	24.580093	11
163300	24.640266	7
163500	24.700511	10
163700	24.760831	10
163900	24.821224	17
164100	24.881690	15
164300	24.942230	25
164500	25.002844	597136
164700	25.063531	820
164900	25.124292	112
165100	25.185126	48
165300	25.246034	47
165500	25.307015	36
165700	25.368070	25
165900	25.429199	21
166100	25.490401	14
166300	25.551676	22
166500	25.613026	13
166700	25.674448	8
166900	25.735945	11
167100	25.797515	8
167300	25.859158	14
167500	25.920875	10
167700	25.982666	231202
167900	26.044530	12749
168100	26.106468	555
168300	26.168479	189
168500	26.230564	94
168700	26.292722	65
168900	26.354954	42
169100	26.417260	28
169300	26.479639	18
169500	26.542091	10
169700	26.604617	13
169900	26.667217	10
170100	26.729890	15
170300	26.792637	6
170500	26.855458	5
170700	26.918352	5
170900	26.981319	12997
171100	27.044360	34241
171300	27.107475	63
171500	27.170663	28
171700	27.233925	12
171900	27.297261	3
172100	27.360669	12
172300	27.424152	5
172500	27.487708	4
172700	27.551338	1
172900	27.615041	6
173100	27.678817	5
173300	27.742668	3
173500	27.806592	5
173700	27.870589	6
173900	27.934660	8
174100	27.998805	2426
174300	28.063023	174
174500	28.127314	11
174700	28.191680	1
174900	28.256118	0
175100	28.320631	2
175300	28.385217	0
175500	28.449876	1
175700	28.514609	2
175900	28.579416	3
176100	28.644296	2
176300	28.709249	3
176500	28.774277	0
176700	28.839378	2
176900	28.904552	3
177100	28.969800	3048
177300	29.035121	5019
177500	29.100516	5
177700	29.165985	1
177900	29.231527	5
178100	29.297143	5
178300	29.362832	3
178500	29.428595	2
178700	29.494432	2
178900	29.560342	3
179100	29.626325	4
179300	29.692382	7
179500	29.758513	8
179700	29.824717	1
179900	29.890995	6
180100	29.957346	124
180300	30.023771	1340
180500	30.090270	2
180700	30.156842	4
180900	30.223487	5
181100	30.290207	2
181300	30.356999	6
181500	30.423866	1
181700	30.490805	5
181900	30.557819	1
182100	30.624906	1
182300	30.692066	2
182500	30.759301	3
182700	30.826608	4
182900	30.893989	3
183100	30.961444	90
183300	31.028972	4978
183500	31.096574	3
183700	31.164250	1
183900	31.231999	4
184100	31.299821	3
184300	31.367718	1
184500	31.435687	2
184700	31.503731	4
184900	31.571847	4
185100	31.640038	6
185300	31.708302	1
185500	31.776639	4
185700	31.845050	4
185900	31.913535	1
186100	31.982093	31561
186300	32.050725	118
186500	32.119430	4
186700	32.188209	6
186900	32.257062	5
187100	32.325988	5
187300	32.394987	1
187500	32.464060	4
187700	32.533207	1
187900	32.602427	3
188100	32.671721	7
188300	32.741088	5
188500	32.810529	4
188700	32.880044	8
188900	32.949632	2972
189100	33.019293	7063
189300	33.089029	14
189500	33.158837	7
189700	33.228720	9
189900	33.298675	11
190100	33.368705	7
190300	33.438808	8
190500	33.508984	6
190700	33.579234	7
190900	33.649558	7
191100	33.719955	2
191300	33.790426	5
191500	33.860970	6
191700	33.931588	38
191900	34.002280	690
192100	34.073045	10
192300	34.143883	1
192500	34.214796	2
192700	34.285781	1
192900	34.356841	3
193100	34.427973	2
193300	34.499180	1
193500	34.570460	3
193700	34.641813	1
193900	34.713240	24
194100	34.784741	3
194300	34.856315	4
194500	34.927963	619
194700	34.999684	4303458
194900	35.071479	190
195100	35.143347	168
195300	35.215289	332
195500	35.287305	393
195700	35.359394	329
195900	35.431557	231
196100	35.503793	200
196300	35.576103	166
196500	35.648486	158
196700	35.720943	113
196900	35.793474	82
197100	35.866078	87
197300	35.938755	106
197500	36.011507	21020
197700	36.084331	87
197900	36.157230	52
198100	36.230201	55
198300	36.303247	53
198500	36.376366	49
198700	36.449558	38
198900	36.522824	34
199100	36.596164	21
199300	36.669577	19
199500	36.743064	22
199700	36.816624	15
199900	36.890258	95
200100	36.963966	2212073
200300	37.037747	44367
200500	37.111601	694
200700	37.185530	393
200900	37.259531	271
201100	37.333607	187
201300	37.407755	89
201500	37.481978	110
201700	37.556274	70
201900	37.630643	75
202100	37.705086	45
202300	37.779603	48
202500	37.854193	45
202700	37.928857	36
202900	38.003594	23256
203100	38.078405	71
203300	38.153290	32
203500	38.228248	28
203700	38.303279	25
203900	38.378384	27
204100	38.453563	17
204300	38.528815	16
204500	38.604141	22
204700	38.679540	16
204900	38.755013	11
205100	38.830560	16
205300	38.906180	16
205500	38.981873	4008
205700	39.057641	13537
205900	39.133481	30
