# Binning: 200 channels
# Deadtime Correction: on
Channel	m/z	Intensity
100	0.000244	0
300	0.000471	74
500	0.000771	2
700	0.001144	0
900	0.001591	0
1100	0.002112	0
1300	0.002706	5
1500	0.003374	5
1700	0.004115	6
1900	0.004930	0
2100	0.005819	0
2300	0.006781	0
2500	0.007816	0
2700	0.008926	0
2900	0.010108	0
3100	0.011365	1
3300	0.012695	0
3500	0.014098	0
3700	0.015575	0
3900	0.017126	0
4100	0.018750	0
4300	0.020448	0
4500	0.022220	0
4700	0.024064	0
4900	0.025983	0
5100	0.027975	1
5300	0.030041	1
5500	0.032180	0
5700	0.034393	0
5900	0.036679	0
6100	0.039039	0
6300	0.041473	0
6500	0.043980	0
6700	0.046561	0
6900	0.049215	0
7100	0.051943	0
7300	0.054744	0
7500	0.057619	0
7700	0.060568	0
7900	0.063590	0
8100	0.066685	0
8300	0.069855	0
8500	0.073097	0
8700	0.076414	0
8900	0.079804	0
9100	0.083267	0
9300	0.086805	0
9500	0.090415	0
9700	0.094100	0
9900	0.097857	0
10100	0.101689	0
10300	0.105594	0
10500	0.109572	0
10700	0.113625	0
10900	0.117750	0
11100	0.121950	0
11300	0.126222	0
11500	0.130569	0
11700	0.134989	0
11900	0.139482	0
12100	0.144050	0
12300	0.148690	0
12500	0.153405	0
12700	0.158192	0
12900	0.163054	0
13100	0.167989	0
13300	0.172997	0
13500	0.178080	0
13700	0.183235	0
13900	0.188465	0
14100	0.193767	0
14300	0.199144	0
14500	0.204594	0
14700	0.210118	0
14900	0.215715	0
15100	0.221385	0
15300	0.227130	0
15500	0.232948	0
15700	0.238839	0
15900	0.244804	0
16100	0.250843	0
16300	0.256955	0
16500	0.263141	0
16700	0.269400	0
16900	0.275733	0
17100	0.282139	0
17300	0.288619	0
17500	0.295173	0
17700	0.301800	0
17900	0.308501	0
18100	0.315275	0
18300	0.322123	0
18500	0.329044	0
18700	0.336040	0
18900	0.343108	0
19100	0.350250	0
19300	0.357466	0
19500	0.364755	0
19700	0.372118	0
19900	0.379555	0
20100	0.387065	0
20300	0.394648	0
20500	0.402306	0
20700	0.410036	0
20900	0.417841	0
21100	0.425719	0
21300	0.433670	0
21500	0.441695	0
21700	0.449794	0
21900	0.457966	0
22100	0.466212	0
22300	0.474531	0
22500	0.482924	0
22700	0.491391	0
22900	0.499931	0
23100	0.508544	0
23300	0.517232	0
23500	0.525992	0
23700	0.534827	0
23900	0.543735	0
24100	0.552716	0
24300	0.561771	0
24500	0.570900	0
24700	0.580102	0
24900	0.589378	0
25100	0.598727	0
25300	0.608150	0
25500	0.617647	0
25700	0.627217	0
25900	0.636860	0
26100	0.646578	0
26300	0.656368	0
26500	0.666233	0
26700	0.676171	0
26900	0.686182	0
27100	0.696267	0
27300	0.706426	0
27500	0.716658	0
27700	0.726964	0
27900	0.737343	0
28100	0.747796	0
28300	0.758323	0
28500	0.768923	0
28700	0.779597	0
28900	0.790344	0
29100	0.801165	0
29300	0.812059	0
29500	0.823027	0
29700	0.834069	0
29900	0.845184	0
30100	0.856372	0
30300	0.867635	0
30500	0.878970	0
30700	0.890380	1
30900	0.901863	0
31100	0.913419	0
31300	0.925049	0
31500	0.936753	0
31700	0.948530	0
31900	0.960381	1
32100	0.972306	14
32300	0.984304	99
32500	0.996375	76
32700	1.008520	774828
32900	1.020739	1698
33100	1.033031	76
33300	1.045397	39
33500	1.057836	23
33700	1.070349	15
33900	1.082936	9
34100	1.095596	14
34300	1.108330	5
34500	1.121137	11
34700	1.134018	5
34900	1.146972	3
35100	1.160000	6
35300	1.173102	9
35500	1.186277	3
35700	1.199526	2
35900	1.212848	2
36100	1.226244	0
36300	1.239713	1
36500	1.253256	1
36700	1.266873	2
36900	1.280563	3
37100	1.294327	1
37300	1.308164	1
37500	1.322075	0
37700	1.336059	0
37900	1.350117	1
38100	1.364249	0
38300	1.378454	1
38500	1.392733	0
38700	1.407085	1
38900	1.421511	1
39100	1.436011	1
39300	1.450584	1
39500	1.465230	0
39700	1.479950	0
39900	1.494744	0
40100	1.509611	0
40300	1.524552	0
40500	1.539567	1
40700	1.554655	1
40900	1.569816	0
41100	1.585051	0
41300	1.600360	1
41500	1.615743	0
41700	1.631198	0
41900	1.646728	0
42100	1.662331	2
42300	1.678007	1
42500	1.693758	0
42700	1.709581	0
42900	1.725479	0
43100	1.741450	0
43300	1.757494	0
43500	1.773612	0
43700	1.789804	0
43900	1.806069	0
44100	1.822408	0
44300	1.838820	0
44500	1.855306	0
44700	1.871865	0
44900	1.888498	0
45100	1.905205	1
45300	1.921985	0
45500	1.938839	0
45700	1.955766	1
45900	1.972767	0
46100	1.989842	0
46300	2.006990	79
46500	2.024211	14
46700	2.041507	0
46900	2.058875	0
47100	2.076318	0
47300	2.093834	1
47500	2.111423	0
47700	2.129086	0
47900	2.146823	0
48100	2.164633	2
48300	2.182517	0
48500	2.200474	0
48700	2.218505	0
48900	2.236610	0
49100	2.254788	0
49300	2.273039	0
49500	2.291365	0
49700	2.309763	0
49900	2.328236	0
50100	2.346782	0
50300	2.365401	0
50500	2.384094	0
50700	2.402861	0
50900	2.421701	0
51100	2.440615	0
51300	2.459602	1
51500	2.478663	0
51700	2.497798	0
51900	2.517006	0
52100	2.536288	0
52300	2.555643	0
52500	2.575072	0
52700	2.594574	0
52900	2.614150	0
53100	2.633800	0
53300	2.653523	0
53500	2.673319	0
53700	2.693190	0
53900	2.713133	0
54100	2.733151	0
54300	2.753242	0
54500	2.773406	0
54700	2.793644	0
54900	2.813956	0
55100	2.834341	0
55300	2.854800	0
55500	2.875332	1
55700	2.895938	0
55900	2.916618	0
56100	2.937371	0
56300	2.958198	0
56500	2.979098	0
56700	3.000072	0
56900	3.021119	0
57100	3.042240	0
57300	3.063435	0
57500	3.084703	0
57700	3.106045	0
57900	3.127460	0
58100	3.148949	0
58300	3.170511	0
58500	3.192147	0
58700	3.213857	0
58900	3.235640	0
59100	3.257497	0
59300	3.279427	1
59500	3.301431	0
59700	3.323508	0
59900	3.345659	0
60100	3.367884	0
60300	3.390182	0
60500	3.412553	0
60700	3.434999	0
60900	3.457518	0
61100	3.480110	0
61300	3.502776	0
61500	3.525516	0
61700	3.548329	0
61900	3.571215	0
62100	3.594176	0
62300	3.617210	0
62500	3.640317	0
62700	3.663498	0
62900	3.686753	1
63100	3.710081	1
63300	3.733483	0
63500	3.756958	0
63700	3.780507	0
63900	3.804129	0
64100	3.827825	0
64300	3.851595	0
64500	3.875438	0
64700	3.899355	0
64900	3.923345	0
65100	3.947409	0
65300	3.971546	0
65500	3.995757	0
65700	4.020042	0
65900	4.044400	0
66100	4.068832	0
66300	4.093337	0
66500	4.117916	0
66700	4.142569	0
66900	4.167295	0
67100	4.192094	0
67300	4.216967	0
67500	4.241914	0
67700	4.266934	0
67900	4.292028	0
68100	4.317196	0
68300	4.342437	1
68500	4.367751	0
68700	4.393140	0
68900	4.418601	1
69100	4.444137	0
69300	4.469746	0
69500	4.495428	0
69700	4.521184	0
69900	4.547014	0
70100	4.572917	0
70300	4.598894	0
70500	4.624944	0
70700	4.651068	0
70900	4.677265	0
71100	4.703537	0
71300	4.729881	0
71500	4.756299	0
71700	4.782791	0
71900	4.809357	0
72100	4.835995	0
72300	4.862708	0
72500	4.889494	0
72700	4.916354	0
72900	4.943287	0
73100	4.970294	0
73300	4.997374	0
73500	5.024528	0
73700	5.051755	0
73900	5.079056	0
74100	5.106431	0
74300	5.133879	0
74500	5.161401	0
74700	5.188997	0
74900	5.216665	0
75100	5.244408	0
75300	5.272224	0
75500	5.300114	0
75700	5.328077	0
75900	5.356114	0
76100	5.384224	0
76300	5.412408	0
76500	5.440666	0
76700	5.468997	0
76900	5.497401	0
77100	5.525880	0
77300	5.554431	0
77500	5.583057	0
77700	5.611756	0
77900	5.640528	0
78100	5.669374	0
78300	5.698294	0
78500	5.727287	0
78700	5.756354	0
78900	5.785494	0
79100	5.814708	0
79300	5.843996	0
79500	5.873357	0
79700	5.902792	0
79900	5.932300	1
80100	5.961882	0
80300	5.991537	0
80500	6.021266	3
80700	6.051069	0
80900	6.080945	0
81100	6.110895	0
81300	6.140918	0
81500	6.171015	0
81700	6.201185	0
81900	6.231429	0
82100	6.261747	1
82300	6.292138	0
82500	6.322602	0
82700	6.353141	1
82900	6.383752	0
83100	6.414438	0
83300	6.445197	0
83500	6.476029	0
83700	6.506936	0
83900	6.537915	0
84100	6.568969	1
84300	6.600095	1
84500	6.631296	0
84700	6.662570	1
84900	6.693917	0
85100	6.725339	0
85300	6.756833	0
85500	6.788402	0
85700	6.820043	1
85900	6.851759	0
86100	6.883548	0
86300	6.915410	0
86500	6.947347	0
86700	6.979356	1
86900	7.011440	32
87100	7.043596	1
87300	7.075827	0
87500	7.108131	0
87700	7.140508	2
87900	7.172960	0
88100	7.205484	0
88300	7.238083	2
88500	7.270754	0
88700	7.303500	0
88900	7.336319	0
89100	7.369212	1
89300	7.402178	0
89500	7.435217	0
89700	7.468331	1
89900	7.501518	0
90100	7.534778	0
90300	7.568112	0
90500	7.601520	1
90700	7.635001	0
90900	7.668556	0
91100	7.702184	0
91300	7.735886	0
91500	7.769661	0
91700	7.803510	0
91900	7.837433	0
92100	7.871429	0
92300	7.905499	0
92500	7.939642	0
92700	7.973859	0
92900	8.008150	2
93100	8.042514	3
93300	8.076951	0
93500	8.111462	0
93700	8.146047	0
93900	8.180706	0
94100	8.215437	0
94300	8.250243	0
94500	8.285122	0
94700	8.320075	0
94900	8.355101	0
95100	8.390201	0
95300	8.425374	0
95500	8.460621	0
95700	8.495941	0
95900	8.531335	0
96100	8.566803	0
96300	8.602344	0
96500	8.637959	0
96700	8.673647	0
96900	8.709409	0
97100	8.745245	0
97300	8.781154	0
97500	8.817136	0
97700	8.853193	0
97900	8.889322	0
98100	8.925526	0
98300	8.961803	0
98500	8.998153	0
98700	9.034577	3
98900	9.071075	0
99100	9.107646	0
99300	9.144291	0
99500	9.181009	0
99700	9.217801	0
99900	9.254667	0
100100	9.291606	0
100300	9.328618	0
100500	9.365705	0
100700	9.402865	0
100900	9.440098	0
101100	9.477405	0
101300	9.514785	0
101500	9.552239	1
101700	9.589767	0
101900	9.627368	0
102100	9.665043	0
102300	9.702792	0
102500	9.740613	0
102700	9.778509	0
102900	9.816478	0
103100	9.854521	1
103300	9.892637	0
103500	9.930827	0
103700	9.969090	0
103900	10.007427	0
104100	10.045838	0
104300	10.084322	0
104500	10.122880	0
104700	10.161511	0
104900	10.200216	0
105100	10.238994	0
105300	10.277846	0
105500	10.316772	0
105700	10.355771	0
105900	10.394843	0
106100	10.433990	0
106300	10.473209	0
106500	10.512503	0
106700	10.551870	0
106900	10.591310	0
107100	10.630824	0
107300	10.670412	0
107500	10.710073	0
107700	10.749808	0
107900	10.789617	0
108100	10.829499	0
108300	10.869454	0
108500	10.909483	0
108700	10.949586	0
108900	10.989762	3
109100	11.030012	7
109300	11.070336	0
109500	11.110733	0
109700	11.151203	0
109900	11.191747	0
110100	11.232365	0
110300	11.273056	0
110500	11.313821	0
110700	11.354660	0
110900	11.395572	0
111100	11.436557	0
111300	11.477616	0
111500	11.518749	0
111700	11.559955	0
111900	11.601235	0
112100	11.642589	0
112300	11.684016	0
112500	11.725516	1
112700	11.767090	1
112900	11.808738	0
113100	11.850459	1
113300	11.892254	0
113500	11.934123	2
113700	11.976065	36
113900	12.018080	15829
114100	12.060170	0
114300	12.102332	2
114500	12.144569	0
114700	12.186878	0
114900	12.229262	0
115100	12.271719	0
115300	12.314250	0
115500	12.356854	0
115700	12.399531	0
115900	12.442283	0
116100	12.485108	0
116300	12.528006	1
116500	12.570978	0
116700	12.614024	2
116900	12.657143	0
117100	12.700336	0
117300	12.743602	0
117500	12.786942	1
117700	12.830355	0
117900	12.873842	0
118100	12.917403	6
118300	12.961037	7
118500	13.004745	49763
118700	13.048526	88
118900	13.092381	3
119100	13.136310	2
119300	13.180312	3
119500	13.224387	4
119700	13.268537	2
119900	13.312759	6
120100	13.357056	0
120300	13.401426	3
120500	13.445869	4
120700	13.490386	0
120900	13.534977	11
121100	13.579641	2
121300	13.624379	0
121500	13.669190	1
121700	13.714075	0
121900	13.759034	0
122100	13.804066	2
122300	13.849171	2
122500	13.894350	2
122700	13.939603	2
122900	13.984930	2
123100	14.030330	17886
123300	14.075803	5
123500	14.121350	1
123700	14.166971	2
123900	14.212665	1
124100	14.258433	2
124300	14.304274	2
124500	14.350189	2
124700	14.396178	0
124900	14.442240	0
125100	14.488375	1
125300	14.534585	2
125500	14.580867	19
125700	14.627224	2
125900	14.673654	1
126100	14.720157	1
126300	14.766734	0
126500	14.813385	2
126700	14.860109	0
126900	14.906907	3
127100	14.953778	4
127300	15.000723	13678
127500	15.047742	14348
127700	15.094834	35
127900	15.142000	15
128100	15.189239	14
128300	15.236552	2
128500	15.283938	6
128700	15.331398	8
128900	15.378932	4
129100	15.426539	3
129300	15.474219	7
129500	15.521974	3
129700	15.569801	4
129900	15.617703	12
130100	15.665678	26
130300	15.713726	3
130500	15.761849	2
130700	15.810044	3
130900	15.858313	6
131100	15.906656	13
131300	15.955073	65
131500	16.003563	187632
131700	16.052126	179
131900	16.100763	12
132100	16.149474	12
132300	16.198258	1
132500	16.247116	0
132700	16.296048	3
132900	16.345053	3
133100	16.394131	13
133300	16.443283	4
133500	16.492509	2
133700	16.541808	3
133900	16.591181	2
134100	16.640628	1
134300	16.690148	3
134500	16.739741	2
134700	16.789408	0
134900	16.839149	2
135100	16.888963	7
135300	16.938851	22
135500	16.988813	174137
135700	17.038848	934
135900	17.088956	30
136100	17.139138	16
136300	17.189394	6
136500	17.239723	13
136700	17.290126	9
136900	17.340603	5
137100	17.391153	3
137300	17.441776	3
137500	17.492473	5
137700	17.543244	1
137900	17.594088	3
138100	17.645006	2
138300	17.695998	36
138500	17.747063	5
138700	17.798201	2
138900	17.849413	4
139100	17.900699	3
139300	17.952058	4
139500	18.003491	448
139700	18.054998	1
139900	18.106578	0
140100	18.158231	3
140300	18.209959	3
140500	18.261759	1
140700	18.313634	1
140900	18.365582	0
141100	18.417603	1
141300	18.469698	1
141500	18.521867	0
141700	18.574109	0
141900	18.626425	0
142100	18.678814	1
142300	18.731277	0
142500	18.783813	1
142700	18.836423	1
142900	18.889107	1
143100	18.941864	3
143300	18.994695	7827
143500	19.047599	73
143700	19.100577	2
143900	19.153629	2
144100	19.206754	0
144300	19.259952	1
144500	19.313225	3
144700	19.366570	3
144900	19.419990	0
145100	19.473483	1
145300	19.527049	1
145500	19.580689	1
145700	19.634403	0
145900	19.688190	1
146100	19.742051	0
146300	19.795985	1
146500	19.849993	0
146700	19.904074	0
146900	19.958230	0
147100	20.012458	1
147300	20.066760	1
147500	20.121136	1
147700	20.175586	1
147900	20.230108	1
148100	20.284705	1
148300	20.339375	0
148500	20.394119	0
148700	20.448936	1
148900	20.503827	0
149100	20.558791	0
149300	20.613829	0
149500	20.668941	0
149700	20.724126	0
149900	20.779384	1
150100	20.834717	0
150300	20.890122	0
150500	20.945602	0
150700	21.001155	0
150900	21.056781	0
151100	21.112481	0
151300	21.168255	0
151500	21.224102	0
151700	21.280023	1
151900	21.336017	0
152100	21.392085	0
152300	21.448227	0
152500	21.504442	0
152700	21.560731	1
152900	21.617093	1
153100	21.673529	0
153300	21.730038	0
153500	21.786621	1
153700	21.843278	0
153900	21.900008	0
154100	21.956811	2
154300	22.013689	6
154500	22.070639	2
154700	22.127664	0
154900	22.184762	0
155100	22.241933	0
155300	22.299178	0
155500	22.356497	0
155700	22.413889	0
155900	22.471355	1
156100	22.528895	0
156300	22.586508	0
156500	22.644194	0
156700	22.701954	1
156900	22.759788	0
157100	22.817695	0
157300	22.875676	0
157500	22.933731	0
157700	22.991859	422
157900	23.050060	7
158100	23.108335	2
158300	23.166684	0
158500	23.225106	0
158700	23.283602	0
158900	23.342171	0
159100	23.400814	0
159300	23.459531	0
159500	23.518321	0
159700	23.577185	0
159900	23.636122	0
160100	23.695133	0
160300	23.754217	1
160500	23.813375	0
160700	23.872607	2
160900	23.931912	22
161100	23.991291	36189
161300	24.050743	112
161500	24.110269	6
161700	24.169869	4
161900	24.229542	2
162100	24.289288	4
162300	24.349108	3
162500	24.409002	2
162700	24.468969	2
162900	24.529010	1
163100	24.589125	3
163300	24.649313	2
163500	24.709574	1
163700	24.769909	3
163900	24.830318	4
164100	24.890800	11
164300	24.951356	15
164500	25.011986	153384
164700	25.072689	325
164900	25.133465	48
165100	25.194316	21
165300	25.255239	16
165500	25.316237	4
165700	25.377308	5
165900	25.438452	9
166100	25.499670	8
166300	25.560962	5
166500	25.622327	6
166700	25.683766	5
166900	25.745278	0
167100	25.806864	4
167300	25.868523	7
167500	25.930256	8
167700	25.992063	84847
167900	26.053943	1726
168100	26.115897	238
168300	26.177924	73
168500	26.240025	39
168700	26.302200	26
168900	26.364448	10
169100	26.426769	12
169300	26.489165	7
169500	26.551633	6
169700	26.614176	5
169900	26.676792	5
170100	26.739481	5
170300	26.802244	4
170500	26.865081	3
170700	26.927991	0
170900	26.990975	4811
171100	27.054032	6574
171300	27.117163	17
171500	27.180367	4
171700	27.243646	2
171900	27.306997	1
172100	27.370422	2
172300	27.433921	3
172500	27.497494	1
172700	27.561139	2
172900	27.624859	0
173100	27.688652	1
173300	27.752519	1
173500	27.816459	0
173700	27.880473	1
173900	27.944560	56
174100	28.008721	540
174300	28.072956	4
174500	28.137264	2
174700	28.201645	0
174900	28.266101	0
175100	28.330629	1
175300	28.395232	3
175500	28.459908	1
175700	28.524657	0
175900	28.589480	0
176100	28.654377	1
176300	28.719347	0
176500	28.784391	1
176700	28.849508	0
176900	28.914699	2
177100	28.979964	1831
177300	29.045302	25
177500	29.110714	1
177700	29.176199	2
177900	29.241758	1
178100	29.307390	0
178300	29.373096	0
178500	29.438876	0
178700	29.504729	1
178900	29.570655	0
179100	29.636656	1
179300	29.702729	3
179500	29.768877	1
179700	29.835098	0
179900	29.901392	0
180100	29.967760	225
180300	30.034202	54
180500	30.100717	1
180700	30.167306	2
180900	30.233969	1
181100	30.300705	1
181300	30.367514	0
181500	30.434397	1
181700	30.501354	1
181900	30.568384	2
182100	30.635488	1
182300	30.702666	0
182500	30.769917	0
182700	30.837241	0
182900	30.904639	0
183100	30.972111	72
183300	31.039656	1138
183500	31.107275	6
183700	31.174968	2
183900	31.242734	1
184100	31.310573	2
184300	31.378486	0
184500	31.446473	1
184700	31.514533	0
184900	31.582667	1
185100	31.650875	1
185300	31.719156	2
185500	31.787510	0
185700	31.855938	2
185900	31.924440	6
186100	31.993015	6745
186300	32.061664	14
186500	32.130387	2
186700	32.199183	2
186900	32.268052	2
187100	32.336995	4
187300	32.406012	2
187500	32.475102	1
187700	32.544266	0
187900	32.613504	4
188100	32.682815	1
188300	32.752199	0
188500	32.821657	2
188700	32.891189	3
188900	32.960795	1373
189100	33.030473	1009
189300	33.100226	3
189500	33.170052	2
189700	33.239951	3
189900	33.309925	0
190100	33.379971	4
190300	33.450092	4
190500	33.520286	0
190700	33.590553	6
190900	33.660894	1
191100	33.731309	0
191300	33.801797	0
191500	33.872359	1
191700	33.942994	44
191900	34.013703	111
192100	34.084485	2
192300	34.155341	4
192500	34.226271	12
192700	34.297274	2
192900	34.368351	1
193100	34.439501	0
193300	34.510725	1
193500	34.582023	1
193700	34.653394	2
193900	34.724838	1
194100	34.796357	11
194300	34.867948	262
194500	34.939614	1589007
194700	35.011353	203011
194900	35.083165	2036
195100	35.155051	1022
195300	35.227011	668
195500	35.299044	340
195700	35.371151	236
195900	35.443331	146
196100	35.515585	87
196300	35.587913	80
196500	35.660314	56
196700	35.732788	51
196900	35.805336	29
197100	35.877958	34
197300	35.950654	43
197500	36.023423	6813
197700	36.096265	21
197900	36.169181	30
198100	36.242171	16
198300	36.315234	17
198500	36.388371	17
198700	36.461581	19
198900	36.534865	9
199100	36.608223	5
199300	36.681654	7
199500	36.755158	5
199700	36.828737	63
199900	36.902388	124
200100	36.976114	656262
200300	37.049913	3674
200500	37.123785	740
200700	37.197731	290
200900	37.271751	160
201100	37.345844	78
201300	37.420011	71
201500	37.494251	47
201700	37.568565	24
201900	37.642953	22
202100	37.717414	23
202300	37.791949	12
202500	37.866557	19
202700	37.941239	33
202900	38.015994	6097
203100	38.090823	25
203300	38.165726	10
203500	38.240702	11
203700	38.315751	9
203900	38.390875	6
204100	38.466072	5
204300	38.541342	15
204500	38.616686	6
204700	38.692103	7
204900	38.767595	11
205100	38.843159	4
205300	38.918798	6
205500	38.994509	4102
205700	39.070295	146
205900	39.146154	9
206100	39.222086	5
206300	39.298092	8
206500	39.374172	4
206700	39.450325	2
206900	39.526552	5
207100	39.602853	11
207300	39.679227	3
207500	39.755674	1
