# Binning: 200 channels
# Deadtime Correction: on
Channel	m/z	Intensity
100	0.000246	0
300	0.000473	69
500	0.000774	3
700	0.001149	0
900	0.001597	0
1100	0.002118	0
1300	0.002714	2
1500	0.003383	2
1700	0.004125	1
1900	0.004941	0
2100	0.005831	0
2300	0.006795	0
2500	0.007832	0
2700	0.008943	0
2900	0.010127	0
3100	0.011385	0
3300	0.012716	0
3500	0.014122	0
3700	0.015601	0
3900	0.017153	0
4100	0.018779	0
4300	0.020479	0
4500	0.022252	0
4700	0.024099	0
4900	0.026020	0
5100	0.028014	0
5300	0.030082	0
5500	0.032224	0
5700	0.034439	0
5900	0.036727	1
6100	0.039090	0
6300	0.041526	0
6500	0.044036	0
6700	0.046619	0
6900	0.049276	0
7100	0.052006	0
7300	0.054810	0
7500	0.057688	1
7700	0.060640	0
7900	0.063665	0
8100	0.066763	0
8300	0.069936	0
8500	0.073182	0
8700	0.076501	0
8900	0.079894	0
9100	0.083361	0
9300	0.086901	0
9500	0.090516	0
9700	0.094203	0
9900	0.097965	0
10100	0.101799	0
10300	0.105708	0
10500	0.109690	0
10700	0.113746	0
10900	0.117876	0
11100	0.122079	0
11300	0.126355	0
11500	0.130706	0
11700	0.135130	0
11900	0.139627	0
12100	0.144198	0
12300	0.148843	0
12500	0.153562	0
12700	0.158354	0
12900	0.163220	0
13100	0.168159	0
13300	0.173172	0
13500	0.178259	0
13700	0.183419	0
13900	0.188653	0
14100	0.193960	0
14300	0.199341	0
14500	0.204796	0
14700	0.210324	0
14900	0.215926	0
15100	0.221602	0
15300	0.227351	0
15500	0.233174	0
15700	0.239071	0
15900	0.245041	0
16100	0.251085	0
16300	0.257202	0
16500	0.263393	1
16700	0.269658	0
16900	0.275996	0
17100	0.282408	0
17300	0.288893	0
17500	0.295453	0
17700	0.302085	1
17900	0.308792	0
18100	0.315572	0
18300	0.322426	0
18500	0.329353	0
18700	0.336354	0
18900	0.343428	0
19100	0.350577	0
19300	0.357798	0
19500	0.365094	0
19700	0.372463	0
19900	0.379906	0
20100	0.387422	0
20300	0.395012	0
20500	0.402675	0
20700	0.410413	0
20900	0.418223	0
21100	0.426108	0
21300	0.434066	0
21500	0.442098	0
21700	0.450203	0
21900	0.458382	0
22100	0.466635	0
22300	0.474961	0
22500	0.483361	0
22700	0.491834	0
22900	0.500381	0
23100	0.509002	0
23300	0.517696	0
23500	0.526464	0
23700	0.535306	0
23900	0.544221	0
24100	0.553210	0
24300	0.562273	0
24500	0.571409	0
24700	0.580619	0
24900	0.589902	0
25100	0.599259	0
25300	0.608690	0
25500	0.618194	0
25700	0.627772	0
25900	0.637423	0
26100	0.647149	0
26300	0.656947	0
26500	0.666820	0
26700	0.676766	1
26900	0.686785	0
27100	0.696879	0
27300	0.707046	0
27500	0.717286	0
27700	0.727600	0
27900	0.737988	0
28100	0.748450	0
28300	0.758985	0
28500	0.769593	0
28700	0.780276	0
28900	0.791032	0
29100	0.801861	0
29300	0.812764	0
29500	0.823741	0
29700	0.834792	0
29900	0.845916	0
30100	0.857113	0
30300	0.868385	0
30500	0.879730	1
30700	0.891148	2
30900	0.902640	0
31100	0.914206	0
31300	0.925846	0
31500	0.937559	1
31700	0.949346	0
31900	0.961206	2
32100	0.973140	2
32300	0.985148	53
32500	0.997229	16
32700	1.009384	249432
32900	1.021612	175
33100	1.033914	24
33300	1.046290	7
33500	1.058739	6
33700	1.071262	9
33900	1.083859	4
34100	1.096529	2
34300	1.109273	2
34500	1.122091	4
34700	1.134982	0
34900	1.147947	0
35100	1.160985	0
35300	1.174097	1
35500	1.187283	1
35700	1.200542	0
35900	1.213875	0
36100	1.227281	1
36300	1.240762	0
36500	1.254315	0
36700	1.267943	0
36900	1.281644	0
37100	1.295419	0
37300	1.309267	0
37500	1.323189	1
37700	1.337184	0
37900	1.351253	0
38100	1.365396	0
38300	1.379613	0
38500	1.393903	0
38700	1.408266	0
38900	1.422704	0
39100	1.437215	0
39300	1.451799	0
39500	1.466458	0
39700	1.481189	0
39900	1.495995	0
40100	1.510874	0
40300	1.525827	0
40500	1.540853	0
40700	1.555953	0
40900	1.571127	0
41100	1.586374	0
41300	1.601695	0
41500	1.617089	0
41700	1.632557	0
41900	1.648099	0
42100	1.663714	0
42300	1.679403	0
42500	1.695166	0
42700	1.711002	0
42900	1.726912	0
43100	1.742896	0
43300	1.758953	0
43500	1.775083	0
43700	1.791288	0
43900	1.807566	0
44100	1.823917	0
44300	1.840343	0
44500	1.856842	0
44700	1.873414	0
44900	1.890060	0
45100	1.906780	1
45300	1.923573	0
45500	1.940441	0
45700	1.957381	0
45900	1.974395	0
46100	1.991483	0
46300	2.008645	25
46500	2.025880	0
46700	2.043189	0
46900	2.060571	0
47100	2.078027	0
47300	2.095557	0
47500	2.113160	0
47700	2.130837	0
47900	2.148588	0
48100	2.166412	0
48300	2.184310	0
48500	2.202281	0
48700	2.220326	0
48900	2.238445	0
49100	2.256637	0
49300	2.274903	0
49500	2.293243	0
49700	2.311656	0
49900	2.330143	0
50100	2.348704	0
50300	2.367338	0
50500	2.386045	0
50700	2.404827	0
50900	2.423682	0
51100	2.442610	0
51300	2.461612	0
51500	2.480688	0
51700	2.499838	0
51900	2.519061	0
52100	2.538358	0
52300	2.557728	0
52500	2.577172	0
52700	2.596690	0
52900	2.616281	0
53100	2.635946	0
53300	2.655684	0
53500	2.675496	0
53700	2.695382	0
53900	2.715342	0
54100	2.735375	0
54300	2.755481	0
54500	2.775662	0
54700	2.795915	0
54900	2.816243	0
55100	2.836644	0
55300	2.857119	0
55500	2.877667	0
55700	2.898289	0
55900	2.918985	0
56100	2.939754	0
56300	2.960597	0
56500	2.981514	0
56700	3.002504	0
56900	3.023568	0
57100	3.044705	0
57300	3.065916	0
57500	3.087201	0
57700	3.108559	0
57900	3.129991	0
58100	3.151497	0
58300	3.173076	0
58500	3.194729	0
58700	3.216455	0
58900	3.238255	0
59100	3.260129	0
59300	3.282077	1
59500	3.304097	0
59700	3.326192	0
59900	3.348360	0
60100	3.370602	0
60300	3.392918	0
60500	3.415307	0
60700	3.437769	0
60900	3.460306	0
61100	3.482916	0
61300	3.505599	0
61500	3.528357	0
61700	3.551188	0
61900	3.574092	0
62100	3.597070	0
62300	3.620122	0
62500	3.643247	0
62700	3.666446	0
62900	3.689719	1
63100	3.713065	1
63300	3.736485	0
63500	3.759979	0
63700	3.783546	0
63900	3.807187	0
64100	3.830901	1
64300	3.854689	0
64500	3.878551	0
64700	3.902486	0
64900	3.926495	0
65100	3.950577	0
65300	3.974734	0
65500	3.998963	0
65700	4.023267	0
65900	4.047644	0
66100	4.072094	0
66300	4.096619	0
66500	4.121217	0
66700	4.145888	0
66900	4.170633	0
67100	4.195452	0
67300	4.220345	0
67500	4.245311	0
67700	4.270350	0
67900	4.295464	0
68100	4.320651	0
68300	4.345911	0
68500	4.371246	0
68700	4.396653	0
68900	4.422135	0
69100	4.447690	0
69300	4.473319	0
69500	4.499021	0
69700	4.524797	0
69900	4.550647	0
70100	4.576570	0
70300	4.602567	0
70500	4.628637	0
70700	4.654781	0
70900	4.680999	0
71100	4.707290	0
71300	4.733655	0
71500	4.760094	0
71700	4.786606	0
71900	4.813192	0
72100	4.839852	0
72300	4.866585	0
72500	4.893392	0
72700	4.920272	0
72900	4.947226	0
73100	4.974254	0
73300	5.001355	0
73500	5.028530	0
73700	5.055778	0
73900	5.083100	0
74100	5.110496	0
74300	5.137966	0
74500	5.165509	0
74700	5.193125	0
74900	5.220816	0
75100	5.248580	0
75300	5.276417	0
75500	5.304328	0
75700	5.332313	0
75900	5.360372	0
76100	5.388504	1
76300	5.416709	0
76500	5.444989	0
76700	5.473342	0
76900	5.501768	0
77100	5.530268	0
77300	5.558842	0
77500	5.587490	0
77700	5.616211	0
77900	5.645005	0
78100	5.673874	0
78300	5.702816	0
78500	5.731831	0
78700	5.760920	0
78900	5.790083	0
79100	5.819320	0
79300	5.848630	0
79500	5.878014	0
79700	5.907471	0
79900	5.937002	0
80100	5.966607	0
80300	5.996285	0
80500	6.026037	0
80700	6.055862	0
80900	6.085761	0
81100	6.115734	0
81300	6.145780	0
81500	6.175900	0
81700	6.206094	0
81900	6.236361	1
82100	6.266702	0
82300	6.297117	0
82500	6.327605	1
82700	6.358167	0
82900	6.388802	0
83100	6.419511	0
83300	6.450294	0
83500	6.481150	1
83700	6.512080	0
83900	6.543083	0
84100	6.574161	0
84300	6.605311	0
84500	6.636536	0
84700	6.667834	0
84900	6.699206	0
85100	6.730651	0
85300	6.762170	0
85500	6.793762	0
85700	6.825429	0
85900	6.857168	1
86100	6.888982	0
86300	6.920869	0
86500	6.952830	0
86700	6.984864	1
86900	7.016972	1
87100	7.049153	0
87300	7.081409	0
87500	7.113737	0
87700	7.146140	0
87900	7.178616	0
88100	7.211166	0
88300	7.243789	0
88500	7.276486	0
88700	7.309257	0
88900	7.342101	0
89100	7.375019	0
89300	7.408010	0
89500	7.441075	0
89700	7.474214	0
89900	7.507426	0
90100	7.540712	0
90300	7.574072	0
90500	7.607505	0
90700	7.641012	0
90900	7.674593	0
91100	7.708247	0
91300	7.741975	0
91500	7.775776	0
91700	7.809651	0
91900	7.843600	0
92100	7.877622	0
92300	7.911718	0
92500	7.945887	0
92700	7.980130	0
92900	8.014447	0
93100	8.048838	0
93300	8.083302	0
93500	8.117839	0
93700	8.152451	0
93900	8.187135	0
94100	8.221894	0
94300	8.256726	0
94500	8.291632	0
94700	8.326611	0
94900	8.361664	0
95100	8.396791	0
95300	8.431991	0
95500	8.467265	0
95700	8.502613	0
95900	8.538034	0
96100	8.573529	0
96300	8.609097	0
96500	8.644740	0
96700	8.680455	0
96900	8.716245	0
97100	8.752108	0
97300	8.788044	0
97500	8.824054	0
97700	8.860138	0
97900	8.896296	0
98100	8.932527	0
98300	8.968831	0
98500	9.005210	0
98700	9.041662	0
98900	9.078187	0
99100	9.114787	0
99300	9.151460	0
99500	9.188206	0
99700	9.225026	0
99900	9.261920	0
100100	9.298887	0
100300	9.335928	0
100500	9.373043	0
100700	9.410231	0
100900	9.447493	0
101100	9.484829	0
101300	9.522238	0
101500	9.559720	0
101700	9.597277	0
101900	9.634907	0
102100	9.672610	0
102300	9.710388	0
102500	9.748239	0
102700	9.786163	0
102900	9.824161	0
103100	9.862233	0
103300	9.900379	0
103500	9.938598	0
103700	9.976890	0
103900	10.015257	0
104100	10.053697	0
104300	10.092210	0
104500	10.130797	0
104700	10.169458	0
104900	10.208192	0
105100	10.247001	0
105300	10.285882	0
105500	10.324838	0
105700	10.363867	0
105900	10.402969	0
106100	10.442145	0
106300	10.481395	0
106500	10.520719	0
106700	10.560116	0
106900	10.599586	0
107100	10.639131	0
107300	10.678749	1
107500	10.718440	0
107700	10.758206	0
107900	10.798044	0
108100	10.837957	0
108300	10.877943	0
108500	10.918003	0
108700	10.958136	0
108900	10.998343	1
109100	11.038624	0
109300	11.078978	0
109500	11.119406	0
109700	11.159907	0
109900	11.200482	0
110100	11.241131	0
110300	11.281854	0
110500	11.322650	0
110700	11.363519	1
110900	11.404462	0
111100	11.445479	0
111300	11.486570	0
111500	11.527734	0
111700	11.568972	1
111900	11.610283	0
112100	11.651668	0
112300	11.693127	0
112500	11.734659	0
112700	11.776265	0
112900	11.817945	0
113100	11.859698	0
113300	11.901525	0
113500	11.943425	6
113700	11.985399	36730
113900	12.027447	278
114100	12.069568	2
114300	12.111763	2
114500	12.154032	0
114700	12.196374	2
114900	12.238790	0
115100	12.281279	0
115300	12.323842	1
115500	12.366479	1
115700	12.409189	2
115900	12.451973	1
116100	12.494831	1
116300	12.537762	0
116500	12.580767	1
116700	12.623845	1
116900	12.666997	0
117100	12.710223	0
117300	12.753522	1
117500	12.796895	0
117700	12.840342	0
117900	12.883862	1
118100	12.927456	5
118300	12.971123	2
118500	13.014865	38758
118700	13.058679	3
118900	13.102568	2
119100	13.146530	1
119300	13.190565	2
119500	13.234675	1
119700	13.278857	4
119900	13.323114	2
120100	13.367444	2
120300	13.411848	1
120500	13.456325	0
120700	13.500876	0
120900	13.545501	11
121100	13.590199	1
121300	13.634971	0
121500	13.679817	0
121700	13.724736	1
121900	13.769729	2
122100	13.814795	1
122300	13.859935	0
122500	13.905149	0
122700	13.950436	0
122900	13.995797	3213
123100	14.041231	426
123300	14.086740	0
123500	14.132321	4
123700	14.177977	0
123900	14.223706	0
124100	14.269509	2
124300	14.315385	1
124500	14.361335	0
124700	14.407358	0
124900	14.453456	2
125100	14.499626	1
125300	14.545871	0
125500	14.592189	5
125700	14.638581	1
125900	14.685046	1
126100	14.731585	0
126300	14.778198	0
126500	14.824884	0
126700	14.871644	0
126900	14.918477	0
127100	14.965384	0
127300	15.012365	3036
127500	15.059419	44
127700	15.106547	2
127900	15.153749	2
128100	15.201024	0
128300	15.248373	2
128500	15.295796	2
128700	15.343292	0
128900	15.390861	1
129100	15.438505	0
129300	15.486222	0
129500	15.534012	0
129700	15.581877	0
129900	15.629815	2
130100	15.677826	0
130300	15.725911	0
130500	15.774070	0
130700	15.822302	0
130900	15.870608	1
131100	15.918988	11
131300	15.967441	352
131500	16.015968	71549
131700	16.064569	3
131900	16.113243	1
132100	16.161991	2
132300	16.210812	0
132500	16.259707	2
132700	16.308676	0
132900	16.357718	0
133100	16.406834	2
133300	16.456024	2
133500	16.505287	1
133700	16.554624	1
133900	16.604034	0
134100	16.653518	0
134300	16.703076	3
134500	16.752707	1
134700	16.802412	0
134900	16.852191	2
135100	16.902043	4
135300	16.951969	1
135500	17.001968	33411
135700	17.052041	70
135900	17.102188	4
136100	17.152408	2
136300	17.202702	1
136500	17.253070	5
136700	17.303511	2
136900	17.354026	1
137100	17.404615	0
137300	17.455277	0
137500	17.506012	1
137700	17.556822	2
137900	17.607705	0
138100	17.658661	2
138300	17.709692	6
138500	17.760796	0
138700	17.811973	2
138900	17.863224	2
139100	17.914549	0
139300	17.965947	2
139500	18.017419	137
139700	18.068965	0
139900	18.120584	0
140100	18.172277	0
140300	18.224044	0
140500	18.275884	0
140700	18.327798	0
140900	18.379785	0
141100	18.431846	1
141300	18.483981	0
141500	18.536189	0
141700	18.588471	0
141900	18.640827	1
142100	18.693256	0
142300	18.745758	0
142500	18.798335	0
142700	18.850985	0
142900	18.903709	0
143100	18.956506	1
143300	19.009377	3824
143500	19.062321	7
143700	19.115340	1
143900	19.168432	0
144100	19.221597	0
144300	19.274836	0
144500	19.328149	0
144700	19.381535	0
144900	19.434995	2
145100	19.488529	0
145300	19.542136	0
145500	19.595817	0
145700	19.649571	0
145900	19.703399	0
146100	19.757301	0
146300	19.811276	0
146500	19.865325	0
146700	19.919448	1
146900	19.973644	0
147100	20.027914	0
147300	20.082258	0
147500	20.136675	1
147700	20.191165	0
147900	20.245730	0
148100	20.300368	0
148300	20.355079	0
148500	20.409865	0
148700	20.464724	0
148900	20.519656	0
149100	20.574662	1
149300	20.629742	0
149500	20.684895	0
149700	20.740122	0
149900	20.795423	0
150100	20.850797	0
150300	20.906245	0
150500	20.961767	0
150700	21.017362	0
150900	21.073031	0
151100	21.128773	0
151300	21.184589	0
151500	21.240479	0
151700	21.296442	0
151900	21.352479	0
152100	21.408590	0
152300	21.464774	1
152500	21.521032	0
152700	21.577363	0
152900	21.633768	0
153100	21.690247	0
153300	21.746799	1
153500	21.803425	2
153700	21.860125	0
153900	21.916898	0
154100	21.973745	0
154300	22.030665	1
154500	22.087659	0
154700	22.144727	0
154900	22.201868	0
155100	22.259083	0
155300	22.316372	0
155500	22.373734	0
155700	22.431170	0
155900	22.488679	0
156100	22.546263	0
156300	22.603919	0
156500	22.661650	0
156700	22.719454	0
156900	22.777331	0
157100	22.835282	0
157300	22.893307	1
157500	22.951406	2
157700	23.009578	121
157900	23.067824	0
158100	23.126143	0
158300	23.184536	0
158500	23.243003	0
158700	23.301543	2
158900	23.360157	1
159100	23.418844	0
159300	23.477606	1
159500	23.536440	0
159700	23.595349	0
159900	23.654331	0
160100	23.713386	0
160300	23.772516	0
160500	23.831719	1
160700	23.890995	12
160900	23.950345	249
161100	24.009769	110880
161300	24.069267	43
161500	24.128838	8
161700	24.188482	6
161900	24.248201	10
162100	24.307993	8
162300	24.367858	10
162500	24.427797	4
162700	24.487810	8
162900	24.547897	5
163100	24.608057	5
163300	24.668290	5
163500	24.728598	3
163700	24.788979	4
163900	24.849433	4
164100	24.909961	18
164300	24.970563	446
164500	25.031239	167328
164700	25.091988	55
164900	25.152811	19
165100	25.213707	9
165300	25.274677	3
165500	25.335721	9
165700	25.396838	6
165900	25.458029	7
166100	25.519293	4
166300	25.580631	0
166500	25.642043	4
166700	25.703528	1
166900	25.765087	1
167100	25.826720	5
167300	25.888426	5
167500	25.950206	7
167700	26.012060	55495
167900	26.073987	750
168100	26.135988	166
168300	26.198062	77
168500	26.260210	32
168700	26.322432	20
168900	26.384727	10
169100	26.447096	14
169300	26.509538	8
169500	26.572054	6
169700	26.634644	6
169900	26.697308	3
170100	26.760045	6
170300	26.822855	1
170500	26.885740	5
170700	26.948698	3
170900	27.011729	2007
171100	27.074834	29
171300	27.138013	6
171500	27.201266	4
171700	27.264592	2
171900	27.327991	3
172100	27.391465	0
172300	27.455012	4
172500	27.518632	0
172700	27.582326	0
172900	27.646094	1
173100	27.709936	1
173300	27.773851	0
173500	27.837839	0
173700	27.901902	1
173900	27.966038	56
174100	28.030247	46
174300	28.094531	0
174500	28.158887	0
174700	28.223318	0
174900	28.287822	0
175100	28.352400	0
175300	28.417051	0
175500	28.481776	0
175700	28.546575	1
175900	28.611447	1
176100	28.676393	0
176300	28.741412	0
176500	28.806505	0
176700	28.871672	0
176900	28.936913	16
177100	29.002227	294
177300	29.067614	2
177500	29.133075	1
177700	29.198610	0
177900	29.264219	0
178100	29.329901	0
178300	29.395657	0
178500	29.461486	0
178700	29.527389	0
178900	29.593366	1
179100	29.659416	0
179300	29.725540	0
179500	29.791738	1
179700	29.858009	1
179900	29.924354	0
180100	29.990772	84
180300	30.057264	0
180500	30.123830	2
180700	30.190469	0
180900	30.257182	1
181100	30.323969	1
181300	30.390829	0
181500	30.457763	1
181700	30.524770	1
181900	30.591851	0
182100	30.659006	0
182300	30.726234	1
182500	30.793536	0
182700	30.860912	0
182900	30.928361	0
183100	30.995884	513
183300	31.063480	6
183500	31.131150	0
183700	31.198894	1
183900	31.266711	1
184100	31.334602	0
184300	31.402567	0
184500	31.470605	0
184700	31.538717	0
184900	31.606902	0
185100	31.675162	0
185300	31.743494	0
185500	31.811901	1
185700	31.880381	0
185900	31.948934	847
186100	32.017562	957
186300	32.086262	1
186500	32.155037	0
186700	32.223885	0
186900	32.292807	0
187100	32.361802	0
187300	32.430871	0
187500	32.500014	0
187700	32.569230	0
187900	32.638520	0
188100	32.707884	0
188300	32.777321	0
188500	32.846831	1
188700	32.916416	0
188900	32.986074	689
189100	33.055806	7
189300	33.125611	0
189500	33.195490	0
189700	33.265442	0
189900	33.335469	2
190100	33.405568	0
190300	33.475742	2
190500	33.545989	0
190700	33.616310	0
190900	33.686704	0
191100	33.757172	1
191300	33.827713	0
191500	33.898329	0
191700	33.969017	52
191900	34.039780	8
192100	34.110616	0
192300	34.181526	0
192500	34.252509	0
192700	34.323566	0
192900	34.394696	0
193100	34.465901	0
193300	34.537179	0
193500	34.608530	0
193700	34.679955	0
193900	34.751454	0
194100	34.823026	8
194300	34.894672	11
194500	34.966392	166310
194700	35.038185	1583
194900	35.110052	195
195100	35.181992	45
195300	35.254007	37
195500	35.326094	23
195700	35.398256	16
195900	35.470491	4
196100	35.542799	5
196300	35.615182	0
196500	35.687637	6
196700	35.760167	3
196900	35.832770	0
197100	35.905447	3
197300	35.978197	15256
197500	36.051021	111
197700	36.123919	7
197900	36.196890	1
198100	36.269935	3
198300	36.343054	0
198500	36.416246	5
198700	36.489512	0
198900	36.562851	0
199100	36.636264	1
199300	36.709751	2
199500	36.783311	0
199700	36.856945	5
199900	36.930653	32156
200100	37.004434	26714
200300	37.078289	122
200500	37.152217	20
200700	37.226219	11
200900	37.300295	8
201100	37.374444	4
201300	37.448667	2
201500	37.522964	1
201700	37.597334	1
201900	37.671778	3
202100	37.746295	0
202300	37.820886	2
202500	37.895551	2
202700	37.970289	374
202900	38.045101	2093
203100	38.119987	1
203300	38.194946	2
203500	38.269979	0
203700	38.345085	0
203900	38.420265	1
204100	38.495519	1
204300	38.570847	0
204500	38.646248	1
204700	38.721722	1
204900	38.797270	1
205100	38.872892	0
205300	38.948588	19
205500	39.024357	1579
205700	39.100200	7
205900	39.176116	1
206100	39.252106	0
206300	39.328170	0
206500	39.404307	0
206700	39.480518	0
206900	39.556802	5
207100	39.633161	1
207300	39.709592	1
207500	39.786098	0
207700	39.862677	4
207900	39.939329	14
208100	40.016056	4650
208300	40.092856	3
