# Binning: 200 channels
# Deadtime Correction: on
Channel	m/z	Intensity
100	0.000205	1
300	0.000415	53
500	0.000699	135
700	0.001056	0
900	0.001487	0
1100	0.001991	0
1300	0.002569	1
1500	0.003220	1
1700	0.003945	0
1900	0.004744	0
2100	0.005616	0
2300	0.006561	0
2500	0.007580	0
2700	0.008673	0
2900	0.009839	0
3100	0.011079	0
3300	0.012392	0
3500	0.013778	0
3700	0.015239	0
3900	0.016772	0
4100	0.018380	0
4300	0.020061	0
4500	0.021815	0
4700	0.023643	0
4900	0.025544	0
5100	0.027519	0
5300	0.029568	0
5500	0.031690	0
5700	0.033885	0
5900	0.036154	0
6100	0.038497	0
6300	0.040913	0
6500	0.043403	0
6700	0.045966	0
6900	0.048602	0
7100	0.051313	0
7300	0.054096	0
7500	0.056954	0
7700	0.059885	0
7900	0.062889	0
8100	0.065967	0
8300	0.069118	0
8500	0.072343	0
8700	0.075642	0
8900	0.079014	0
9100	0.082459	0
9300	0.085978	0
9500	0.089571	0
9700	0.093237	0
9900	0.096977	0
10100	0.100790	0
10300	0.104677	0
10500	0.108637	0
10700	0.112671	0
10900	0.116778	0
11100	0.120959	0
11300	0.125213	0
11500	0.129541	0
11700	0.133942	0
11900	0.138417	0
12100	0.142966	0
12300	0.147588	0
12500	0.152283	0
12700	0.157052	0
12900	0.161895	0
13100	0.166811	0
13300	0.171801	0
13500	0.176864	1
13700	0.182001	0
13900	0.187211	0
14100	0.192495	0
14300	0.197852	0
14500	0.203283	0
14700	0.208787	0
14900	0.214365	0
15100	0.220017	0
15300	0.225742	0
15500	0.231540	0
15700	0.237412	0
15900	0.243358	0
16100	0.249377	0
16300	0.255469	0
16500	0.261636	0
16700	0.267875	0
16900	0.274188	0
17100	0.280575	0
17300	0.287035	0
17500	0.293569	0
17700	0.300176	1
17900	0.306857	0
18100	0.313612	0
18300	0.320440	0
18500	0.327341	0
18700	0.334316	0
18900	0.341365	0
19100	0.348487	0
19300	0.355682	0
19500	0.362951	0
19700	0.370294	0
19900	0.377710	0
20100	0.385200	0
20300	0.392763	0
20500	0.400400	0
20700	0.408110	0
20900	0.415894	0
21100	0.423751	0
21300	0.431682	0
21500	0.439686	0
21700	0.447764	0
21900	0.455916	0
22100	0.464141	0
22300	0.472439	0
22500	0.480811	0
22700	0.489257	0
22900	0.497776	0
23100	0.506368	0
23300	0.515034	0
23500	0.523774	0
23700	0.532587	0
23900	0.541474	0
24100	0.550434	0
24300	0.559468	0
24500	0.568576	0
24700	0.577756	0
24900	0.587011	0
25100	0.596339	0
25300	0.605740	0
25500	0.615215	0
25700	0.624764	0
25900	0.634386	0
26100	0.644081	0
26300	0.653850	0
26500	0.663693	0
26700	0.673609	0
26900	0.683599	0
27100	0.693662	0
27300	0.703799	0
27500	0.714009	0
27700	0.724293	0
27900	0.734650	0
28100	0.745081	0
28300	0.755585	0
28500	0.766163	0
28700	0.776815	0
28900	0.787540	0
29100	0.798338	0
29300	0.809210	0
29500	0.820156	0
29700	0.831175	0
29900	0.842268	0
30100	0.853434	0
30300	0.864674	0
30500	0.875987	0
30700	0.887374	0
30900	0.898834	0
31100	0.910368	1
31300	0.921975	1
31500	0.933656	2
31700	0.945410	1
31900	0.957238	5
32100	0.969140	33
32300	0.981115	86
32500	0.993163	68
32700	1.005285	1179330
32900	1.017481	535
33100	1.029750	35
33300	1.042093	22
33500	1.054509	23
33700	1.066998	19
33900	1.079562	20
34100	1.092198	17
34300	1.104909	15
34500	1.117693	19
34700	1.130550	14
34900	1.143481	8
35100	1.156485	9
35300	1.169563	6
35500	1.182715	2
35700	1.195940	1
35900	1.209238	0
36100	1.222610	4
36300	1.236056	3
36500	1.249575	3
36700	1.263168	2
36900	1.276834	3
37100	1.290573	1
37300	1.304387	3
37500	1.318273	1
37700	1.332234	2
37900	1.346268	0
38100	1.360375	2
38300	1.374556	1
38500	1.388810	0
38700	1.403138	0
38900	1.417540	0
39100	1.432015	0
39300	1.446563	0
39500	1.461185	0
39700	1.475881	0
39900	1.490650	0
40100	1.505493	0
40300	1.520409	0
40500	1.535399	0
40700	1.550462	0
40900	1.565599	2
41100	1.580809	0
41300	1.596093	0
41500	1.611450	1
41700	1.626881	0
41900	1.642385	0
42100	1.657963	0
42300	1.673615	0
42500	1.689340	0
42700	1.705138	0
42900	1.721010	0
43100	1.736956	0
43300	1.752975	0
43500	1.769068	0
43700	1.785234	0
43900	1.801474	0
44100	1.817787	0
44300	1.834174	0
44500	1.850634	0
44700	1.867168	0
44900	1.883775	0
45100	1.900456	0
45300	1.917211	0
45500	1.934039	0
45700	1.950940	0
45900	1.967915	1
46100	1.984964	0
46300	2.002086	0
46500	2.019281	99
46700	2.036551	0
46900	2.053893	0
47100	2.071309	0
47300	2.088799	0
47500	2.106362	2
47700	2.123999	0
47900	2.141709	0
48100	2.159493	0
48300	2.177351	0
48500	2.195282	0
48700	2.213286	0
48900	2.231364	0
49100	2.249515	0
49300	2.267741	0
49500	2.286039	0
49700	2.304411	0
49900	2.322857	0
50100	2.341376	0
50300	2.359969	0
50500	2.378635	0
50700	2.397375	0
50900	2.416188	0
51100	2.435075	0
51300	2.454035	0
51500	2.473069	0
51700	2.492176	0
51900	2.511357	0
52100	2.530612	0
52300	2.549939	0
52500	2.569341	1
52700	2.588816	0
52900	2.608365	0
53100	2.627987	0
53300	2.647682	0
53500	2.667451	0
53700	2.687294	1
53900	2.707210	0
54100	2.727200	0
54300	2.747263	0
54500	2.767400	0
54700	2.787610	0
54900	2.807894	0
55100	2.828252	0
55300	2.848683	0
55500	2.869187	0
55700	2.889765	1
55900	2.910417	0
56100	2.931142	0
56300	2.951940	0
56500	2.972812	2
56700	2.993758	0
56900	3.014777	0
57100	3.035870	0
57300	3.057036	1
57500	3.078276	0
57700	3.099589	0
57900	3.120976	0
58100	3.142436	0
58300	3.163970	0
58500	3.185577	0
58700	3.207258	0
58900	3.229013	0
59100	3.250841	1
59300	3.272742	0
59500	3.294717	0
59700	3.316766	0
59900	3.338888	0
60100	3.361084	0
60300	3.383353	0
60500	3.405696	0
60700	3.428112	0
60900	3.450602	0
61100	3.473165	0
61300	3.495802	0
61500	3.518512	1
61700	3.541296	1
61900	3.564153	0
62100	3.587084	0
62300	3.610089	0
62500	3.633167	0
62700	3.656318	0
62900	3.679543	0
63100	3.702842	2
63300	3.726214	0
63500	3.749660	0
63700	3.773179	0
63900	3.796771	0
64100	3.820438	0
64300	3.844177	0
64500	3.867991	0
64700	3.891878	0
64900	3.915838	0
65100	3.939872	0
65300	3.963979	0
65500	3.988160	0
65700	4.012415	0
65900	4.036743	0
66100	4.061144	0
66300	4.085619	0
66500	4.110168	0
66700	4.134790	0
66900	4.159486	1
67100	4.184255	0
67300	4.209097	0
67500	4.234014	1
67700	4.259003	0
67900	4.284067	0
68100	4.309204	0
68300	4.334414	0
68500	4.359698	0
68700	4.385055	0
68900	4.410486	0
69100	4.435991	0
69300	4.461569	0
69500	4.487220	0
69700	4.512945	0
69900	4.538744	0
70100	4.564616	0
70300	4.590562	0
70500	4.616581	0
70700	4.642674	0
70900	4.668840	0
71100	4.695080	0
71300	4.721393	0
71500	4.747780	0
71700	4.774240	0
71900	4.800774	0
72100	4.827381	1
72300	4.854062	0
72500	4.880817	0
72700	4.907645	0
72900	4.934546	0
73100	4.961521	0
73300	4.988570	0
73500	5.015692	0
73700	5.042888	0
73900	5.070157	0
74100	5.097500	1
74300	5.124916	0
74500	5.152406	0
74700	5.179969	0
74900	5.207606	0
75100	5.235316	0
75300	5.263100	0
75500	5.290958	0
75700	5.318889	0
75900	5.346893	0
76100	5.374971	1
76300	5.403123	0
76500	5.431348	0
76700	5.459646	0
76900	5.488018	0
77100	5.516464	0
77300	5.544983	0
77500	5.573576	0
77700	5.602242	0
77900	5.630982	0
78100	5.659795	0
78300	5.688682	0
78500	5.717643	0
78700	5.746677	0
78900	5.775784	0
79100	5.804965	0
79300	5.834219	0
79500	5.863547	0
79700	5.892949	0
79900	5.922424	0
80100	5.951973	0
80300	5.981595	0
80500	6.011291	0
80700	6.041060	0
80900	6.070902	0
81100	6.100819	0
81300	6.130809	0
81500	6.160872	0
81700	6.191009	0
81900	6.221219	0
82100	6.251503	0
82300	6.281860	0
82500	6.312291	0
82700	6.342796	0
82900	6.373374	0
83100	6.404026	0
83300	6.434751	0
83500	6.465549	0
83700	6.496421	0
83900	6.527367	0
84100	6.558386	0
84300	6.589479	0
84500	6.620645	0
84700	6.651885	0
84900	6.683198	0
85100	6.714585	0
85300	6.746046	0
85500	6.777580	0
85700	6.809187	0
85900	6.840868	0
86100	6.872623	0
86300	6.904451	0
86500	6.936352	0
86700	6.968327	0
86900	7.000376	0
87100	7.032498	0
87300	7.064694	0
87500	7.096963	1
87700	7.129306	0
87900	7.161722	0
88100	7.194212	0
88300	7.226775	1
88500	7.259412	0
88700	7.292122	0
88900	7.324906	0
89100	7.357764	0
89300	7.390695	0
89500	7.423699	0
89700	7.456777	0
89900	7.489929	1
90100	7.523154	0
90300	7.556453	1
90500	7.589825	0
90700	7.623270	0
90900	7.656790	0
91100	7.690382	0
91300	7.724049	0
91500	7.757789	0
91700	7.791602	0
91900	7.825489	0
92100	7.859449	0
92300	7.893483	0
92500	7.927591	0
92700	7.961772	0
92900	7.996026	0
93100	8.030354	0
93300	8.064756	0
93500	8.099231	0
93700	8.133779	0
93900	8.168402	0
94100	8.203097	0
94300	8.237867	0
94500	8.272709	0
94700	8.307626	0
94900	8.342615	0
95100	8.377679	0
95300	8.412816	0
95500	8.448026	0
95700	8.483310	0
95900	8.518668	0
96100	8.554099	0
96300	8.589603	0
96500	8.625181	0
96700	8.660833	0
96900	8.696558	0
97100	8.732356	0
97300	8.768229	0
97500	8.804174	0
97700	8.840194	0
97900	8.876286	0
98100	8.912453	0
98300	8.948692	0
98500	8.985006	0
98700	9.021393	0
98900	9.057853	0
99100	9.094387	0
99300	9.130995	0
99500	9.167676	0
99700	9.204430	0
99900	9.241258	0
100100	9.278160	0
100300	9.315135	0
100500	9.352184	0
100700	9.389306	0
100900	9.426501	0
101100	9.463771	0
101300	9.501113	0
101500	9.538530	0
101700	9.576020	0
101900	9.613583	0
102100	9.651220	0
102300	9.688930	0
102500	9.726714	0
102700	9.764572	0
102900	9.802503	0
103100	9.840507	0
103300	9.878585	0
103500	9.916737	0
103700	9.954962	0
103900	9.993261	0
104100	10.031633	0
104300	10.070079	0
104500	10.108598	0
104700	10.147191	0
104900	10.185857	0
105100	10.224597	1
105300	10.263410	0
105500	10.302297	0
105700	10.341258	0
105900	10.380291	0
106100	10.419399	0
106300	10.458580	0
106500	10.497835	0
106700	10.537163	0
106900	10.576564	0
107100	10.616039	0
107300	10.655588	1
107500	10.695210	0
107700	10.734906	0
107900	10.774675	0
108100	10.814518	0
108300	10.854434	0
108500	10.894424	0
108700	10.934488	0
108900	10.974624	0
109100	11.014835	2
109300	11.055119	0
109500	11.095476	0
109700	11.135907	0
109900	11.176412	0
110100	11.216990	0
110300	11.257642	0
110500	11.298367	0
110700	11.339165	0
110900	11.380038	0
111100	11.420983	0
111300	11.462003	0
111500	11.503095	0
111700	11.544262	0
111900	11.585502	0
112100	11.626815	1
112300	11.668202	3
112500	11.709662	3
112700	11.751196	0
112900	11.792804	1
113100	11.834485	1
113300	11.876239	0
113500	11.918068	0
113700	11.959969	70
113900	12.001944	108646
114100	12.043993	31
114300	12.086115	3
114500	12.128311	4
114700	12.170580	2
114900	12.212923	2
115100	12.255339	2
115300	12.297829	2
115500	12.340393	0
115700	12.383030	2
115900	12.425740	3
116100	12.468524	2
116300	12.511381	3
116500	12.554312	5
116700	12.597317	8
116900	12.640395	5
117100	12.683547	11
117300	12.726772	1
117500	12.770071	2
117700	12.813443	4
117900	12.856889	4
118100	12.900408	1
118300	12.944001	1
118500	12.987667	113066
118700	13.031407	39693
118900	13.075220	0
119100	13.119107	8
119300	13.163068	4
119500	13.207102	10
119700	13.251209	7
119900	13.295390	5
120100	13.339645	5
120300	13.383973	3
120500	13.428375	5
120700	13.472850	4
120900	13.517398	2
121100	13.562021	41
121300	13.606716	1
121500	13.651486	1
121700	13.696328	4
121900	13.741245	0
122100	13.786235	1
122300	13.831298	1
122500	13.876435	1
122700	13.921645	1
122900	13.966929	1
123100	14.012287	15217
123300	14.057718	10
123500	14.103223	0
123700	14.148801	4
123900	14.194452	3
124100	14.240178	3
124300	14.285976	2
124500	14.331848	0
124700	14.377794	1
124900	14.423814	2
125100	14.469906	1
125300	14.516073	3
125500	14.562313	0
125700	14.608626	25
125900	14.655013	0
126100	14.701473	1
126300	14.748007	1
126500	14.794615	2
126700	14.841296	1
126900	14.888051	1
127100	14.934879	0
127300	14.981780	0
127500	15.028756	2286
127700	15.075804	10
127900	15.122926	3
128100	15.170122	0
128300	15.217392	2
128500	15.264734	1
128700	15.312151	1
128900	15.359641	3
129100	15.407204	0
129300	15.454841	3
129500	15.502551	0
129700	15.550335	2
129900	15.598193	1
130100	15.646124	4
130300	15.694129	3
130500	15.742207	0
130700	15.790358	2
130900	15.838584	2
131100	15.886882	2
131300	15.935255	11
131500	15.983700	229744
131700	16.032220	219
131900	16.080812	3
132100	16.129479	2
132300	16.178219	4
132500	16.227032	6
132700	16.275919	5
132900	16.324880	3
133100	16.373914	2
133300	16.423021	2
133500	16.472202	1
133700	16.521457	2
133900	16.570785	6
134100	16.620187	2
134300	16.669662	1
134500	16.719211	1
134700	16.768833	0
134900	16.818529	1
135100	16.868298	1
135300	16.918141	2
135500	16.968057	2
135700	17.018047	111208
135900	17.068110	8
136100	17.118247	2
136300	17.168458	3
136500	17.218742	4
136700	17.269099	6
136900	17.319531	5
137100	17.370035	5
137300	17.420613	6
137500	17.471265	4
137700	17.521990	6
137900	17.572789	4
138100	17.623661	1
138300	17.674607	6
138500	17.725626	18
138700	17.776719	1
138900	17.827885	2
139100	17.879125	0
139300	17.930439	1
139500	17.981826	424
139700	18.033286	36
139900	18.084820	1
140100	18.136428	1
140300	18.188109	1
140500	18.239864	2
140700	18.291692	0
140900	18.343593	0
141100	18.395569	0
141300	18.447617	1
141500	18.499740	0
141700	18.551935	2
141900	18.604205	0
142100	18.656548	1
142300	18.708964	0
142500	18.761454	0
142700	18.814017	0
142900	18.866654	0
143100	18.919365	1
143300	18.972149	18779
143500	19.025006	39255
143700	19.077937	17
143900	19.130942	4
144100	19.184020	3
144300	19.237172	5
144500	19.290397	2
144700	19.343696	2
144900	19.397068	2
145100	19.450514	0
145300	19.504033	2
145500	19.557626	0
145700	19.611292	0
145900	19.665032	1
146100	19.718846	2
146300	19.772733	0
146500	19.826693	0
146700	19.880727	0
146900	19.934835	1
147100	19.989016	0
147300	20.043271	0
147500	20.097599	0
147700	20.152001	0
147900	20.206476	0
148100	20.261024	0
148300	20.315647	0
148500	20.370343	0
148700	20.425112	0
148900	20.479955	1
149100	20.534871	0
149300	20.589861	0
149500	20.644925	0
149700	20.700062	0
149900	20.755272	0
150100	20.810556	1
150300	20.865914	1
150500	20.921345	0
150700	20.976849	0
150900	21.032428	1
151100	21.088079	0
151300	21.143804	0
151500	21.199603	0
151700	21.255476	0
151900	21.311421	0
152100	21.367441	0
152300	21.423534	0
152500	21.479700	0
152700	21.535940	0
152900	21.592253	1
153100	21.648640	1
153300	21.705101	0
153500	21.761635	2
153700	21.818243	0
153900	21.874924	0
154100	21.931678	0
154300	21.988506	0
154500	22.045408	1
154700	22.102383	0
154900	22.159432	1
155100	22.216554	0
155300	22.273750	1
155500	22.331020	0
155700	22.388362	2
155900	22.445779	0
156100	22.503269	1
156300	22.560832	0
156500	22.618469	0
156700	22.676180	0
156900	22.733964	0
157100	22.791821	1
157300	22.849753	1
157500	22.907757	1
157700	22.965835	5
157900	23.023987	6
158100	23.082212	2
158300	23.140511	0
158500	23.198883	2
158700	23.257329	1
158900	23.315849	0
159100	23.374441	2
159300	23.433108	1
159500	23.491848	1
159700	23.550661	1
159900	23.609548	0
160100	23.668509	2
160300	23.727543	0
160500	23.786651	1
160700	23.845832	0
160900	23.905086	26
161100	23.964414	1412
161300	24.023816	479788
161500	24.083291	17
161700	24.142840	18
161900	24.202463	27
162100	24.262158	20
162300	24.321928	21
162500	24.381771	25
162700	24.441687	36
162900	24.501677	27
163100	24.561740	23
163300	24.621877	33
163500	24.682088	19
163700	24.742372	20
163900	24.802730	29
164100	24.863161	12
164300	24.923665	21
164500	24.984244	705829
164700	25.044895	20981
164900	25.105621	34
165100	25.166419	7
165300	25.227292	15
165500	25.288238	20
165700	25.349257	24
165900	25.410350	24
166100	25.471516	20
166300	25.532756	27
166500	25.594070	17
166700	25.655457	17
166900	25.716917	12
167100	25.778451	15
167300	25.840059	6
167500	25.901740	16
167700	25.963495	35
167900	26.025323	166090
168100	26.087225	268
168300	26.149200	86
168500	26.211249	44
168700	26.273371	28
168900	26.335567	16
169100	26.397836	20
169300	26.460179	17
169500	26.522596	8
169700	26.585086	7
169900	26.647649	7
170100	26.710286	5
170300	26.772997	3
170500	26.835781	5
170700	26.898638	4
170900	26.961570	9
171100	27.024574	3638
171300	27.087652	10
171500	27.150804	4
171700	27.214029	6
171900	27.277328	5
172100	27.340701	0
172300	27.404146	3
172500	27.467666	2
172700	27.531259	5
172900	27.594925	0
173100	27.658665	3
173300	27.722479	5
173500	27.786366	2
173700	27.850326	2
173900	27.914360	1
174100	27.978468	146
174300	28.042649	46
174500	28.106904	1
174700	28.171232	1
174900	28.235634	3
175100	28.300109	1
175300	28.364658	3
175500	28.429280	0
175700	28.493976	0
175900	28.558745	1
176100	28.623588	1
176300	28.688505	0
176500	28.753495	4
176700	28.818558	1
176900	28.883695	3
177100	28.948906	18
177300	29.014190	384
177500	29.079548	0
177700	29.144979	2
177900	29.210483	4
178100	29.276062	0
178300	29.341713	0
178500	29.407439	2
178700	29.473237	1
178900	29.539110	2
179100	29.605056	1
179300	29.671075	1
179500	29.737168	0
179700	29.803334	0
179900	29.869574	0
180100	29.935888	2
180300	30.002275	105
180500	30.068736	4
180700	30.135270	1
180900	30.201877	0
181100	30.268558	0
181300	30.335313	2
181500	30.402141	1
181700	30.469043	0
181900	30.536018	1
182100	30.603067	1
182300	30.670190	0
182500	30.737385	0
182700	30.804655	1
182900	30.871998	0
183100	30.939414	3
183300	31.006904	1517
183500	31.074468	4
183700	31.142105	0
183900	31.209815	0
184100	31.277599	0
184300	31.345457	0
184500	31.413388	1
184700	31.481393	1
184900	31.549471	0
185100	31.617623	0
185300	31.685848	1
185500	31.754147	0
185700	31.822519	3
185900	31.890965	2
186100	31.959485	3940
186300	32.028078	273
186500	32.096744	1
186700	32.165484	0
186900	32.234298	0
187100	32.303185	1
187300	32.372145	0
187500	32.441179	1
187700	32.510287	1
187900	32.579468	1
188100	32.648723	0
188300	32.718051	3
188500	32.787453	0
188700	32.856928	1
188900	32.926477	0
189100	32.996099	1391
189300	33.065795	3
189500	33.135565	0
189700	33.205408	2
189900	33.275324	3
190100	33.345314	2
190300	33.415378	0
190500	33.485515	0
190700	33.555725	1
190900	33.626009	0
191100	33.696367	3
191300	33.766798	0
191500	33.837303	1
191700	33.907881	1
191900	33.978533	128
192100	34.049258	2
192300	34.120057	0
192500	34.190930	0
192700	34.261875	0
192900	34.332895	0
193100	34.403988	0
193300	34.475154	0
193500	34.546394	2
193700	34.617708	1
193900	34.689095	1
194100	34.760556	0
194300	34.832090	2
194500	34.903697	9
194700	34.975379	320268
194900	35.047133	462
195100	35.118961	63
195300	35.190863	37
195500	35.262839	16
195700	35.334887	7
195900	35.407010	8
196100	35.479206	6
196300	35.551475	6
196500	35.623818	5
196700	35.696235	1
196900	35.768725	5
197100	35.841288	3
197300	35.913925	3
197500	35.986636	33915
197700	36.059420	23
197900	36.132278	3
198100	36.205209	3
198300	36.278214	4
198500	36.351292	6
198700	36.424444	3
198900	36.497669	2
199100	36.570968	1
199300	36.644340	3
199500	36.717786	2
199700	36.791305	3
199900	36.864898	1
200100	36.938565	100593
200300	37.012305	15971
200500	37.086119	55
200700	37.160006	10
200900	37.233966	6
201100	37.308000	5
201300	37.382108	4
201500	37.456289	8
201700	37.530544	4
201900	37.604872	1
202100	37.679274	1
202300	37.753749	0
202500	37.828298	1
202700	37.902921	2
202900	37.977617	1961
203100	38.052386	5488
203300	38.127229	6
203500	38.202145	2
203700	38.277135	2
203900	38.352199	2
204100	38.427336	3
204300	38.502547	5
204500	38.577831	4
204700	38.653189	3
204900	38.728620	4
205100	38.804125	0
205300	38.879703	1
205500	38.955355	8
205700	39.031080	5425
205900	39.106879	13
206100	39.182751	1
206300	39.258697	3
206500	39.334717	3
206700	39.410810	2
206900	39.486976	3
207100	39.563216	15
207300	39.639530	1
207500	39.715917	2
207700	39.792377	0
207900	39.868912	1
