# Binning: 200 channels
# Deadtime Correction: on
Channel	m/z	Intensity
100	0.000230	1
300	0.000450	337
500	0.000744	5
700	0.001112	0
900	0.001553	1
1100	0.002068	0
1300	0.002656	18
1500	0.003318	10
1700	0.004054	2
1900	0.004863	1
2100	0.005746	0
2300	0.006702	0
2500	0.007732	0
2700	0.008835	0
2900	0.010012	0
3100	0.011262	0
3300	0.012587	0
3500	0.013984	0
3700	0.015455	0
3900	0.017000	0
4100	0.018619	0
4300	0.020311	0
4500	0.022076	0
4700	0.023915	0
4900	0.025828	0
5100	0.027814	0
5300	0.029874	0
5500	0.032007	0
5700	0.034214	0
5900	0.036494	0
6100	0.038848	0
6300	0.041276	0
6500	0.043777	0
6700	0.046352	0
6900	0.049000	0
7100	0.051722	0
7300	0.054518	0
7500	0.057387	0
7700	0.060329	0
7900	0.063346	0
8100	0.066435	0
8300	0.069599	0
8500	0.072835	0
8700	0.076146	0
8900	0.079530	0
9100	0.082988	0
9300	0.086519	0
9500	0.090123	0
9700	0.093802	0
9900	0.097554	0
10100	0.101379	0
10300	0.105278	0
10500	0.109251	0
10700	0.113297	0
10900	0.117416	0
11100	0.121610	0
11300	0.125877	0
11500	0.130217	0
11700	0.134631	0
11900	0.139119	0
12100	0.143680	0
12300	0.148314	0
12500	0.153023	0
12700	0.157804	0
12900	0.162660	0
13100	0.167589	0
13300	0.172591	0
13500	0.177667	0
13700	0.182817	0
13900	0.188040	0
14100	0.193337	0
14300	0.198708	0
14500	0.204152	0
14700	0.209669	0
14900	0.215260	0
15100	0.220925	0
15300	0.226663	0
15500	0.232475	0
15700	0.238360	0
15900	0.244319	0
16100	0.250352	0
16300	0.256458	0
16500	0.262637	0
16700	0.268891	0
16900	0.275217	0
17100	0.281618	0
17300	0.288092	0
17500	0.294639	0
17700	0.301260	0
17900	0.307955	0
18100	0.314723	0
18300	0.321565	0
18500	0.328480	0
18700	0.335469	0
18900	0.342532	0
19100	0.349668	0
19300	0.356877	0
19500	0.364160	0
19700	0.371517	0
19900	0.378947	0
20100	0.386451	0
20300	0.394029	0
20500	0.401680	0
20700	0.409404	0
20900	0.417203	0
21100	0.425074	0
21300	0.433020	0
21500	0.441039	0
21700	0.449131	0
21900	0.457297	0
22100	0.465537	0
22300	0.473850	0
22500	0.482236	0
22700	0.490697	0
22900	0.499231	0
23100	0.507838	0
23300	0.516519	0
23500	0.525274	0
23700	0.534102	0
23900	0.543003	0
24100	0.551979	0
24300	0.561028	0
24500	0.570150	0
24700	0.579346	0
24900	0.588615	0
25100	0.597959	0
25300	0.607375	0
25500	0.616866	0
25700	0.626429	0
25900	0.636067	0
26100	0.645778	0
26300	0.655562	0
26500	0.665420	0
26700	0.675352	0
26900	0.685357	0
27100	0.695436	0
27300	0.705588	1
27500	0.715814	0
27700	0.726114	0
27900	0.736487	0
28100	0.746934	0
28300	0.757454	0
28500	0.768048	0
28700	0.778715	0
28900	0.789456	0
29100	0.800270	0
29300	0.811159	0
29500	0.822120	0
29700	0.833155	0
29900	0.844264	0
30100	0.855446	0
30300	0.866702	0
30500	0.878032	0
30700	0.889435	0
30900	0.900912	0
31100	0.912462	0
31300	0.924086	0
31500	0.935783	0
31700	0.947554	2
31900	0.959398	4
32100	0.971316	33
32300	0.983308	54
32500	0.995373	32
32700	1.007512	3444558
32900	1.019724	2461
33100	1.032010	75
33300	1.044369	68
33500	1.056802	50
33700	1.069309	30
33900	1.081889	36
34100	1.094543	32
34300	1.107270	35
34500	1.120071	29
34700	1.132946	37
34900	1.145894	27
35100	1.158915	17
35300	1.172010	9
35500	1.185179	13
35700	1.198421	7
35900	1.211737	13
36100	1.225127	7
36300	1.238590	4
36500	1.252126	5
36700	1.265736	3
36900	1.279420	4
37100	1.293177	3
37300	1.307008	1
37500	1.320912	6
37700	1.334890	2
37900	1.348942	2
38100	1.363067	2
38300	1.377266	1
38500	1.391538	0
38700	1.405884	2
38900	1.420303	1
39100	1.434796	0
39300	1.449363	2
39500	1.464003	0
39700	1.478716	1
39900	1.493504	0
40100	1.508364	0
40300	1.523299	0
40500	1.538307	1
40700	1.553388	1
40900	1.568543	2
41100	1.583772	1
41300	1.599074	0
41500	1.614450	0
41700	1.629899	1
41900	1.645422	0
42100	1.661019	1
42300	1.676689	1
42500	1.692432	0
42700	1.708250	0
42900	1.724140	1
43100	1.740105	1
43300	1.756143	0
43500	1.772254	0
43700	1.788439	0
43900	1.804698	0
44100	1.821030	0
44300	1.837436	0
44500	1.853915	1
44700	1.870468	0
44900	1.887094	0
45100	1.903794	2
45300	1.920568	0
45500	1.937415	0
45700	1.954336	0
45900	1.971330	1
46100	1.988398	0
46300	2.005540	4
46500	2.022755	336
46700	2.040043	0
46900	2.057405	0
47100	2.074841	0
47300	2.092350	3
47500	2.109933	1
47700	2.127590	0
47900	2.145320	0
48100	2.163123	1
48300	2.181000	0
48500	2.198951	0
48700	2.216975	0
48900	2.235073	0
49100	2.253245	0
49300	2.271490	0
49500	2.289808	0
49700	2.308200	0
49900	2.326666	0
50100	2.345205	0
50300	2.363818	1
50500	2.382504	0
50700	2.401264	0
50900	2.420098	0
51100	2.439005	0
51300	2.457986	0
51500	2.477040	1
51700	2.496168	0
51900	2.515369	0
52100	2.534644	0
52300	2.553993	0
52500	2.573415	1
52700	2.592910	1
52900	2.612480	0
53100	2.632122	0
53300	2.651839	0
53500	2.671629	1
53700	2.691492	0
53900	2.711429	0
54100	2.731440	0
54300	2.751524	0
54500	2.771682	1
54700	2.791913	0
54900	2.812218	1
55100	2.832597	0
55300	2.853049	1
55500	2.873574	1
55700	2.894174	0
55900	2.914846	1
56100	2.935593	0
56300	2.956413	0
56500	2.977306	0
56700	2.998273	0
56900	3.019314	2
57100	3.040428	0
57300	3.061616	1
57500	3.082877	0
57700	3.104212	0
57900	3.125620	0
58100	3.147102	0
58300	3.168658	0
58500	3.190287	0
58700	3.211990	0
58900	3.233766	0
59100	3.255616	0
59300	3.277539	1
59500	3.299536	0
59700	3.321607	0
59900	3.343751	3
60100	3.365969	0
60300	3.388260	1
60500	3.410625	1
60700	3.433063	0
60900	3.455575	0
61100	3.478161	0
61300	3.500820	0
61500	3.523553	0
61700	3.546359	0
61900	3.569239	0
62100	3.592192	0
62300	3.615219	0
62500	3.638320	0
62700	3.661494	0
62900	3.684742	7
63100	3.708063	6
63300	3.731458	0
63500	3.754926	0
63700	3.778468	0
63900	3.802083	0
64100	3.825773	1
64300	3.849535	0
64500	3.873371	0
64700	3.897281	0
64900	3.921265	0
65100	3.945322	1
65300	3.969452	0
65500	3.993656	0
65700	4.017934	2
65900	4.042285	2
66100	4.066710	0
66300	4.091208	0
66500	4.115780	0
66700	4.140426	0
66900	4.165145	0
67100	4.189937	0
67300	4.214804	0
67500	4.239743	2
67700	4.264757	0
67900	4.289844	1
68100	4.315004	1
68300	4.340238	0
68500	4.365546	0
68700	4.390927	0
68900	4.416382	1
69100	4.441910	0
69300	4.467512	0
69500	4.493187	0
69700	4.518936	0
69900	4.544759	0
70100	4.570655	0
70300	4.596625	1
70500	4.622668	0
70700	4.648785	0
70900	4.674976	1
71100	4.701240	1
71300	4.727577	0
71500	4.753988	0
71700	4.780473	0
71900	4.807031	0
72100	4.833663	0
72300	4.860369	2
72500	4.887148	0
72700	4.914000	1
72900	4.940926	0
73100	4.967926	1
73300	4.994999	0
73500	5.022146	0
73700	5.049367	0
73900	5.076661	0
74100	5.104028	0
74300	5.131469	0
74500	5.158984	0
74700	5.186572	0
74900	5.214234	0
75100	5.241969	0
75300	5.269778	0
75500	5.297661	0
75700	5.325617	1
75900	5.353647	1
76100	5.381750	0
76300	5.409927	1
76500	5.438177	1
76700	5.466501	1
76900	5.494899	0
77100	5.523370	0
77300	5.551914	0
77500	5.580533	0
77700	5.609224	0
77900	5.637990	0
78100	5.666829	1
78300	5.695741	0
78500	5.724727	0
78700	5.753787	1
78900	5.782920	0
79100	5.812127	0
79300	5.841407	0
79500	5.870761	2
79700	5.900189	0
79900	5.929690	0
80100	5.959264	0
80300	5.988913	0
80500	6.018634	12
80700	6.048430	0
80900	6.078299	0
81100	6.108241	0
81300	6.138257	0
81500	6.168347	0
81700	6.198510	0
81900	6.228747	0
82100	6.259057	1
82300	6.289441	0
82500	6.319898	0
82700	6.350429	1
82900	6.381034	2
83100	6.411712	1
83300	6.442464	2
83500	6.473289	0
83700	6.504188	2
83900	6.535160	1
84100	6.566206	1
84300	6.597326	2
84500	6.628519	0
84700	6.659786	0
84900	6.691126	0
85100	6.722540	1
85300	6.754027	1
85500	6.785588	3
85700	6.817223	0
85900	6.848931	2
86100	6.880713	2
86300	6.912568	2
86500	6.944497	1
86700	6.976499	2
86900	7.008575	131
87100	7.040725	5
87300	7.072948	5
87500	7.105245	5
87700	7.137615	6
87900	7.170059	1
88100	7.202576	4
88300	7.235167	3
88500	7.267832	0
88700	7.300570	0
88900	7.333381	0
89100	7.366267	1
89300	7.399225	2
89500	7.432258	3
89700	7.465364	1
89900	7.498543	4
90100	7.531796	2
90300	7.565123	1
90500	7.598523	1
90700	7.631997	0
90900	7.665544	1
91100	7.699165	1
91300	7.732860	0
91500	7.766628	1
91700	7.800469	0
91900	7.834385	1
92100	7.868373	0
92300	7.902436	0
92500	7.936572	0
92700	7.970781	0
92900	8.005064	0
93100	8.039421	32
93300	8.073851	0
93500	8.108355	0
93700	8.142932	0
93900	8.177583	0
94100	8.212307	1
94300	8.247106	0
94500	8.281977	0
94700	8.316922	0
94900	8.351941	0
95100	8.387033	0
95300	8.422199	0
95500	8.457439	0
95700	8.492752	0
95900	8.528138	0
96100	8.563598	0
96300	8.599132	0
96500	8.634739	0
96700	8.670420	0
96900	8.706175	1
97100	8.742003	0
97300	8.777904	0
97500	8.813879	1
97700	8.849928	0
97900	8.886050	0
98100	8.922246	0
98300	8.958516	0
98500	8.994859	0
98700	9.031275	21
98900	9.067765	0
99100	9.104329	0
99300	9.140966	0
99500	9.177677	0
99700	9.214462	0
99900	9.251320	1
100100	9.288251	0
100300	9.325256	0
100500	9.362335	0
100700	9.399487	0
100900	9.436713	0
101100	9.474012	0
101300	9.511385	0
101500	9.548832	0
101700	9.586352	3
101900	9.623946	0
102100	9.661613	0
102300	9.699354	0
102500	9.737168	1
102700	9.775056	0
102900	9.813017	1
103100	9.851052	0
103300	9.889161	0
103500	9.927343	1
103700	9.965599	0
103900	10.003928	9
104100	10.042331	0
104300	10.080808	0
104500	10.119358	1
104700	10.157982	0
104900	10.196679	0
105100	10.235450	0
105300	10.274294	0
105500	10.313212	0
105700	10.352203	0
105900	10.391268	0
106100	10.430407	0
106300	10.469619	0
106500	10.508905	0
106700	10.548264	0
106900	10.587697	0
107100	10.627204	1
107300	10.666784	0
107500	10.706437	0
107700	10.746164	1
107900	10.785965	0
108100	10.825839	0
108300	10.865787	1
108500	10.905809	0
108700	10.945904	0
108900	10.986072	0
109100	11.026314	37
109300	11.066630	0
109500	11.107019	1
109700	11.147482	2
109900	11.188019	0
110100	11.228629	0
110300	11.269312	0
110500	11.310069	0
110700	11.350900	0
110900	11.391804	0
111100	11.432782	0
111300	11.473834	0
111500	11.514959	0
111700	11.556157	1
111900	11.597429	0
112100	11.638775	0
112300	11.680194	0
112500	11.721687	1
112700	11.763253	1
112900	11.804893	1
113100	11.846607	0
113300	11.888394	0
113500	11.930255	1
113700	11.972189	98
113900	12.014197	60000
114100	12.056278	3
114300	12.098433	4
114500	12.140662	2
114700	12.182964	3
114900	12.225339	3
115100	12.267789	3
115300	12.310311	1
115500	12.352908	3
115700	12.395578	2
115900	12.438321	0
116100	12.481138	2
116300	12.524029	1
116500	12.566993	6
116700	12.610031	3
116900	12.653142	7
117100	12.696327	3
117300	12.739586	1
117500	12.782918	3
117700	12.826323	5
117900	12.869802	6
118100	12.913355	3
118300	12.956982	5
118500	13.000681	204886
118700	13.044455	109
118900	13.088302	8
119100	13.132223	11
119300	13.176217	20
119500	13.220284	11
119700	13.264426	17
119900	13.308641	10
120100	13.352929	4
120300	13.397291	3
120500	13.441727	8
120700	13.486236	7
120900	13.530819	42
121100	13.575475	5
121300	13.620205	6
121500	13.665008	8
121700	13.709885	8
121900	13.754836	8
122100	13.799860	5
122300	13.844958	3
122500	13.890129	8
122700	13.935374	4
122900	13.980692	6
123100	14.026084	109331
123300	14.071550	39
123500	14.117089	12
123700	14.162702	17
123900	14.208388	27
124100	14.254148	15
124300	14.299981	8
124500	14.345888	13
124700	14.391869	11
124900	14.437923	7
125100	14.484050	3
125300	14.530252	4
125500	14.576526	92
125700	14.622875	22
125900	14.669297	7
126100	14.715792	9
126300	14.762361	9
126500	14.809004	3
126700	14.855720	6
126900	14.902510	5
127100	14.949373	3
127300	14.996310	4730
127500	15.043321	223309
127700	15.090405	272
127900	15.137563	119
128100	15.184794	72
128300	15.232099	51
128500	15.279477	44
128700	15.326929	31
128900	15.374454	25
129100	15.422053	27
129300	15.469726	21
129500	15.517472	20
129700	15.565292	15
129900	15.613185	9
130100	15.661152	247
130300	15.709193	18
130500	15.757307	18
130700	15.805494	10
130900	15.853756	14
131100	15.902090	11
131300	15.950499	170
131500	15.998981	1359336
131700	16.047536	2651
131900	16.096165	36
132100	16.144868	26
132300	16.193644	26
132500	16.242494	26
132700	16.291417	21
132900	16.340414	21
133100	16.389484	19
133300	16.438628	21
133500	16.487846	19
133700	16.537137	13
133900	16.586502	9
134100	16.635940	16
134300	16.685452	21
134500	16.735037	11
134700	16.784696	7
134900	16.834429	10
135100	16.884235	8
135300	16.934115	8
135500	16.984068	1046199
135700	17.034095	17902
135900	17.084195	96
136100	17.134369	56
136300	17.184617	47
136500	17.234938	47
136700	17.285333	48
136900	17.335801	47
137100	17.386343	41
137300	17.436958	36
137500	17.487647	27
137700	17.538410	21
137900	17.589246	23
138100	17.640155	18
138300	17.691139	231
138500	17.742195	31
138700	17.793326	17
138900	17.844530	14
139100	17.895807	13
139300	17.947158	10
139500	17.998583	3052
139700	18.050081	20
139900	18.101653	6
140100	18.153298	5
140300	18.205017	8
140500	18.256810	5
140700	18.308676	6
140900	18.360615	10
141100	18.412629	5
141300	18.464715	13
141500	18.516876	9
141700	18.569110	4
141900	18.621417	6
142100	18.673798	8
142300	18.726253	8
142500	18.778781	9
142700	18.831383	4
142900	18.884058	3
143100	18.936807	3
143300	18.989630	72623
143500	19.042526	1868
143700	19.095495	26
143900	19.148538	14
144100	19.201655	7
144300	19.254845	9
144500	19.308109	6
144700	19.361447	9
144900	19.414858	2
145100	19.468342	7
145300	19.521901	3
145500	19.575532	9
145700	19.629238	4
145900	19.683016	3
146100	19.736869	2
146300	19.790795	4
146500	19.844794	4
146700	19.898868	4
146900	19.953014	2
147100	20.007235	12
147300	20.061528	3
147500	20.115896	5
147700	20.170337	0
147900	20.224851	4
148100	20.279440	4
148300	20.334101	1
148500	20.388837	1
148700	20.443645	1
148900	20.498528	1
149100	20.553484	0
149300	20.608513	1
149500	20.663616	0
149700	20.718793	2
149900	20.774043	1
150100	20.829367	2
150300	20.884765	1
150500	20.940236	0
150700	20.995780	8
150900	21.051398	14
151100	21.107090	0
151300	21.162855	0
151500	21.218694	0
151700	21.274606	2
151900	21.330592	1
152100	21.386652	0
152300	21.442785	1
152500	21.498991	1
152700	21.555272	0
152900	21.611625	1
153100	21.668053	1
153300	21.724554	1
153500	21.781128	1
153700	21.837776	1
153900	21.894498	0
154100	21.951293	3
154300	22.008162	16
154500	22.065104	18
154700	22.122120	3
154900	22.179210	1
155100	22.236373	3
155300	22.293609	3
155500	22.350919	0
155700	22.408303	1
155900	22.465761	1
156100	22.523291	1
156300	22.580896	2
156500	22.638574	0
156700	22.696325	2
156900	22.754151	2
157100	22.812049	2
157300	22.870022	1
157500	22.928068	1
157700	22.986187	2082
157900	23.044380	105
158100	23.102647	6
158300	23.160987	2
158500	23.219401	1
158700	23.277888	1
158900	23.336449	2
159100	23.395083	2
159300	23.453791	2
159500	23.512573	1
159700	23.571428	1
159900	23.630357	2
160100	23.689359	1
160300	23.748435	0
160500	23.807584	0
160700	23.866807	0
160900	23.926104	57
161100	23.985474	135224
161300	24.044917	569
161500	24.104435	21
161700	24.164025	16
161900	24.223690	16
162100	24.283428	6
162300	24.343239	11
162500	24.403125	8
162700	24.463083	16
162900	24.523115	7
163100	24.583221	11
163300	24.643401	9
163500	24.703654	8
163700	24.763980	10
163900	24.824380	11
164100	24.884854	9
164300	24.945401	23
164500	25.006022	544293
164700	25.066716	600
164900	25.127484	113
165100	25.188326	57
165300	25.249241	46
165500	25.310229	22
165700	25.371292	22
165900	25.432427	12
166100	25.493637	15
166300	25.554920	13
166500	25.616276	9
166700	25.677706	6
166900	25.739210	3
167100	25.800787	8
167300	25.862438	11
167500	25.924162	5
167700	25.985960	321389
167900	26.047831	6501
168100	26.109777	430
168300	26.171795	142
168500	26.233887	90
168700	26.296053	59
168900	26.358292	33
169100	26.420605	16
169300	26.482992	21
169500	26.545452	12
169700	26.607985	12
169900	26.670593	7
170100	26.733273	8
170300	26.796028	7
170500	26.858855	5
170700	26.921757	2
170900	26.984732	20929
171100	27.047780	46451
171300	27.110903	65
171500	27.174098	33
171700	27.237368	14
171900	27.300710	21
172100	27.364127	10
172300	27.427617	8
172500	27.491180	8
172700	27.554818	6
172900	27.618528	4
173100	27.682313	1
173300	27.746170	5
173500	27.810102	5
173700	27.874107	3
173900	27.938185	11
174100	28.002337	3684
174300	28.066563	33
174500	28.130862	8
174700	28.195235	6
174900	28.259682	3
175100	28.324202	3
175300	28.388795	1
175500	28.453462	3
175700	28.518203	4
175900	28.583017	2
176100	28.647905	2
176300	28.712866	2
176500	28.777901	5
176700	28.843010	1
176900	28.908192	11
177100	28.973447	10833
177300	29.038777	1159
177500	29.104179	8
177700	29.169656	11
177900	29.235206	8
178100	29.300829	2
178300	29.366526	4
178500	29.432297	1
178700	29.498141	5
178900	29.564059	3
179100	29.630050	7
179300	29.696115	10
179500	29.762254	3
179700	29.828466	6
179900	29.894751	8
180100	29.961110	280
180300	30.027543	1861
180500	30.094050	6
180700	30.160629	1
180900	30.227283	13
181100	30.294010	9
181300	30.360811	2
181500	30.427685	2
181700	30.494632	4
181900	30.561654	4
182100	30.628749	7
182300	30.695917	5
182500	30.763159	7
182700	30.830475	5
182900	30.897864	4
183100	30.965327	222
183300	31.032863	7621
183500	31.100473	8
183700	31.168156	7
183900	31.235913	2
184100	31.303744	3
184300	31.371648	3
184500	31.439626	1
184700	31.507677	8
184900	31.575802	1
185100	31.644000	9
185300	31.712272	4
185500	31.780618	6
185700	31.849037	4
185900	31.917530	7
186100	31.986096	52919
186300	32.054736	126
186500	32.123449	9
186700	32.192236	3
186900	32.261097	5
187100	32.330031	8
187300	32.399038	8
187500	32.468120	4
187700	32.537274	6
187900	32.606503	6
188100	32.675805	6
188300	32.745180	7
188500	32.814629	7
188700	32.884152	4
188900	32.953748	5801
189100	33.023418	10927
189300	33.093161	16
189500	33.162978	14
189700	33.232869	13
189900	33.302833	14
190100	33.372871	8
190300	33.442982	10
190500	33.513167	16
190700	33.583425	10
190900	33.653757	5
191100	33.724162	3
191300	33.794641	8
191500	33.865194	5
191700	33.935820	223
191900	34.006520	853
192100	34.077293	10
192300	34.148140	6
192500	34.219061	5
192700	34.290055	2
192900	34.361122	4
193100	34.432264	4
193300	34.503478	2
193500	34.574767	1
193700	34.646128	2
193900	34.717564	40
194100	34.789073	2
194300	34.860656	6
194500	34.932312	369619
194700	35.004041	4255671
194900	35.075845	3
195100	35.147722	16
195300	35.219672	141
195500	35.291696	301
195700	35.363794	333
195900	35.435965	315
196100	35.508210	215
196300	35.580528	203
196500	35.652920	188
196700	35.725385	131
196900	35.797924	115
197100	35.870537	93
197300	35.943223	121
197500	36.015982	18480
197700	36.088816	97
197900	36.161723	89
198100	36.234703	86
198300	36.307757	88
198500	36.380885	65
198700	36.454086	65
198900	36.527360	40
199100	36.600709	25
199300	36.674130	30
199500	36.747626	34
199700	36.821195	22
199900	36.894837	203
200100	36.968553	3662517
200300	37.042343	37820
200500	37.116206	409
200700	37.190143	408
200900	37.264154	291
201100	37.338237	184
201300	37.412395	154
201500	37.486626	100
201700	37.560931	100
201900	37.635309	87
202100	37.709761	76
202300	37.784286	48
202500	37.858885	54
202700	37.933558	54
202900	38.008304	22752
203100	38.083123	75
203300	38.158016	53
203500	38.232983	40
203700	38.308024	37
203900	38.383137	40
204100	38.458325	28
204300	38.533586	35
204500	38.608921	22
204700	38.684329	26
204900	38.759811	16
205100	38.835366	13
205300	38.910995	29
205500	38.986697	14018
205700	39.062473	6996
205900	39.138323	38
