# Binning: 200 channels
# Deadtime Correction: on
Channel	m/z	Intensity
100	0.000223	0
300	0.000440	37
500	0.000729	1
700	0.001090	0
900	0.001524	0
1100	0.002030	0
1300	0.002609	54
1500	0.003260	58
1700	0.003984	6
1900	0.004780	1
2100	0.005649	0
2300	0.006590	0
2500	0.007604	0
2700	0.008691	0
2900	0.009849	0
3100	0.011081	0
3300	0.012385	0
3500	0.013761	0
3700	0.015210	0
3900	0.016731	0
4100	0.018325	0
4300	0.019992	0
4500	0.021730	0
4700	0.023542	0
4900	0.025426	0
5100	0.027382	0
5300	0.029411	0
5500	0.031513	0
5700	0.033686	0
5900	0.035933	0
6100	0.038252	0
6300	0.040643	0
6500	0.043107	0
6700	0.045644	0
6900	0.048253	0
7100	0.050934	0
7300	0.053688	0
7500	0.056515	0
7700	0.059414	0
7900	0.062385	0
8100	0.065429	0
8300	0.068546	0
8500	0.071735	0
8700	0.074996	0
8900	0.078330	0
9100	0.081737	0
9300	0.085216	1
9500	0.088768	0
9700	0.092392	0
9900	0.096088	0
10100	0.099857	0
10300	0.103699	0
10500	0.107613	0
10700	0.111600	0
10900	0.115659	1
11100	0.119790	0
11300	0.123994	0
11500	0.128271	0
11700	0.132620	0
11900	0.137042	0
12100	0.141536	0
12300	0.146103	0
12500	0.150742	0
12700	0.155453	0
12900	0.160238	0
13100	0.165094	0
13300	0.170023	0
13500	0.175025	0
13700	0.180099	0
13900	0.185246	0
14100	0.190465	0
14300	0.195757	0
14500	0.201121	0
14700	0.206558	0
14900	0.212067	0
15100	0.217649	0
15300	0.223303	0
15500	0.229030	0
15700	0.234829	0
15900	0.240701	0
16100	0.246645	0
16300	0.252662	0
16500	0.258751	0
16700	0.264913	0
16900	0.271147	0
17100	0.277454	0
17300	0.283833	0
17500	0.290285	0
17700	0.296809	0
17900	0.303406	0
18100	0.310076	0
18300	0.316817	0
18500	0.323632	0
18700	0.330519	0
18900	0.337478	0
19100	0.344510	0
19300	0.351614	0
19500	0.358791	0
19700	0.366040	0
19900	0.373362	0
20100	0.380757	0
20300	0.388224	0
20500	0.395763	0
20700	0.403375	0
20900	0.411059	0
21100	0.418816	0
21300	0.426646	0
21500	0.434548	0
21700	0.442522	0
21900	0.450569	0
22100	0.458689	0
22300	0.466880	0
22500	0.475145	0
22700	0.483482	0
22900	0.491891	0
23100	0.500373	0
23300	0.508928	0
23500	0.517555	0
23700	0.526254	0
23900	0.535026	0
24100	0.543871	0
24300	0.552788	0
24500	0.561777	0
24700	0.570840	0
24900	0.579974	0
25100	0.589181	0
25300	0.598461	0
25500	0.607813	0
25700	0.617237	0
25900	0.626734	0
26100	0.636304	0
26300	0.645946	0
26500	0.655661	0
26700	0.665448	0
26900	0.675307	0
27100	0.685239	0
27300	0.695244	0
27500	0.705321	0
27700	0.715471	0
27900	0.725693	0
28100	0.735988	0
28300	0.746355	0
28500	0.756794	0
28700	0.767307	0
28900	0.777891	0
29100	0.788548	0
29300	0.799278	0
29500	0.810080	0
29700	0.820955	0
29900	0.831902	2
30100	0.842922	0
30300	0.854014	0
30500	0.865179	0
30700	0.876416	0
30900	0.887726	0
31100	0.899108	1
31300	0.910563	0
31500	0.922090	0
31700	0.933690	2
31900	0.945362	0
32100	0.957107	2
32300	0.968924	26
32500	0.980814	69
32700	0.992776	39
32900	1.004811	2044816
33100	1.016918	1487
33300	1.029098	48
33500	1.041350	52
33700	1.053675	36
33900	1.066072	31
34100	1.078542	26
34300	1.091085	30
34500	1.103700	30
34700	1.116387	29
34900	1.129147	11
35100	1.141979	18
35300	1.154884	8
35500	1.167861	7
35700	1.180911	6
35900	1.194034	7
36100	1.207228	4
36300	1.220496	5
36500	1.233836	4
36700	1.247248	1
36900	1.260733	3
37100	1.274291	1
37300	1.287920	1
37500	1.301623	1
37700	1.315398	1
37900	1.329245	0
38100	1.343165	1
38300	1.357158	3
38500	1.371223	2
38700	1.385360	1
38900	1.399570	1
39100	1.413853	1
39300	1.428208	0
39500	1.442635	0
39700	1.457135	1
39900	1.471708	0
40100	1.486353	2
40300	1.501070	1
40500	1.515860	0
40700	1.530723	0
40900	1.545658	0
41100	1.560665	0
41300	1.575745	0
41500	1.590898	0
41700	1.606123	0
41900	1.621421	0
42100	1.636791	0
42300	1.652233	0
42500	1.667748	0
42700	1.683336	0
42900	1.698996	0
43100	1.714729	0
43300	1.730534	0
43500	1.746411	0
43700	1.762362	1
43900	1.778384	0
44100	1.794479	0
44300	1.810647	0
44500	1.826887	1
44700	1.843200	0
44900	1.859585	0
45100	1.876043	0
45300	1.892573	0
45500	1.909176	0
45700	1.925851	0
45900	1.942599	0
46100	1.959419	0
46300	1.976311	0
46500	1.993277	0
46700	2.010314	217
46900	2.027425	0
47100	2.044607	0
47300	2.061863	0
47500	2.079190	0
47700	2.096591	2
47900	2.114063	0
48100	2.131609	0
48300	2.149226	0
48500	2.166917	1
48700	2.184679	0
48900	2.202515	0
49100	2.220423	0
49300	2.238403	0
49500	2.256456	0
49700	2.274581	0
49900	2.292779	0
50100	2.311049	0
50300	2.329392	0
50500	2.347807	0
50700	2.366295	2
50900	2.384856	0
51100	2.403488	0
51300	2.422194	0
51500	2.440972	0
51700	2.459822	0
51900	2.478745	0
52100	2.497740	0
52300	2.516808	1
52500	2.535949	0
52700	2.555162	0
52900	2.574447	0
53100	2.593805	0
53300	2.613235	0
53500	2.632738	0
53700	2.652314	0
53900	2.671962	0
54100	2.691682	0
54300	2.711475	0
54500	2.731341	0
54700	2.751279	0
54900	2.771289	0
55100	2.791372	0
55300	2.811528	1
55500	2.831756	0
55700	2.852056	0
55900	2.872429	0
56100	2.892875	0
56300	2.913393	0
56500	2.933983	0
56700	2.954646	0
56900	2.975382	0
57100	2.996190	0
57300	3.017070	0
57500	3.038023	0
57700	3.059049	1
57900	3.080147	0
58100	3.101318	1
58300	3.122561	0
58500	3.143876	0
58700	3.165264	1
58900	3.186725	1
59100	3.208258	0
59300	3.229864	0
59500	3.251542	2
59700	3.273293	0
59900	3.295116	2
60100	3.317011	1
60300	3.338979	2
60500	3.361020	0
60700	3.383133	0
60900	3.405319	0
61100	3.427577	1
61300	3.449908	0
61500	3.472311	0
61700	3.494787	0
61900	3.517335	1
62100	3.539956	0
62300	3.562649	0
62500	3.585415	0
62700	3.608253	0
62900	3.631164	4
63100	3.654147	3
63300	3.677203	3
63500	3.700331	7
63700	3.723532	0
63900	3.746805	0
64100	3.770151	0
64300	3.793569	0
64500	3.817060	0
64700	3.840623	0
64900	3.864259	0
65100	3.887967	0
65300	3.911748	0
65500	3.935601	0
65700	3.959527	0
65900	3.983525	0
66100	4.007596	0
66300	4.031740	0
66500	4.055955	0
66700	4.080244	0
66900	4.104605	0
67100	4.129038	0
67300	4.153544	0
67500	4.178122	0
67700	4.202773	1
67900	4.227496	0
68100	4.252292	0
68300	4.277161	0
68500	4.302102	0
68700	4.327115	0
68900	4.352201	1
69100	4.377359	0
69300	4.402590	0
69500	4.427894	0
69700	4.453270	0
69900	4.478718	1
70100	4.504239	0
70300	4.529833	0
70500	4.555499	0
70700	4.581237	0
70900	4.607048	1
71100	4.632932	0
71300	4.658888	0
71500	4.684916	0
71700	4.711017	0
71900	4.737191	0
72100	4.763437	0
72300	4.789755	0
72500	4.816146	0
72700	4.842610	0
72900	4.869146	0
73100	4.895754	0
73300	4.922435	1
73500	4.949189	0
73700	4.976015	0
73900	5.002914	0
74100	5.029885	0
74300	5.056928	0
74500	5.084044	0
74700	5.111233	0
74900	5.138494	0
75100	5.165828	0
75300	5.193234	0
75500	5.220712	0
75700	5.248264	0
75900	5.275887	2
76100	5.303583	1
76300	5.331352	1
76500	5.359193	1
76700	5.387107	0
76900	5.415093	0
77100	5.443152	1
77300	5.471283	0
77500	5.499487	0
77700	5.527763	0
77900	5.556112	0
78100	5.584533	0
78300	5.613026	0
78500	5.641593	0
78700	5.670231	0
78900	5.698943	1
79100	5.727726	1
79300	5.756583	0
79500	5.785511	0
79700	5.814513	1
79900	5.843586	1
80100	5.872733	1
80300	5.901951	0
80500	5.931243	1
80700	5.960607	0
80900	5.990043	0
81100	6.019552	0
81300	6.049133	0
81500	6.078787	1
81700	6.108513	0
81900	6.138312	1
82100	6.168183	0
82300	6.198127	0
82500	6.228143	0
82700	6.258232	1
82900	6.288394	0
83100	6.318628	1
83300	6.348934	0
83500	6.379313	0
83700	6.409764	0
83900	6.440288	0
84100	6.470884	1
84300	6.501553	0
84500	6.532295	0
84700	6.563109	1
84900	6.593995	0
85100	6.624954	0
85300	6.655986	4
85500	6.687089	0
85700	6.718266	0
85900	6.749515	2
86100	6.780836	1
86300	6.812230	1
86500	6.843697	4
86700	6.875236	3
86900	6.906847	1
87100	6.938531	2
87300	6.970288	1
87500	7.002117	20
87700	7.034018	4
87900	7.065992	0
88100	7.098039	0
88300	7.130158	2
88500	7.162349	1
88700	7.194613	2
88900	7.226950	2
89100	7.259359	1
89300	7.291841	1
89500	7.324395	1
89700	7.357021	2
89900	7.389720	2
90100	7.422492	1
90300	7.455336	0
90500	7.488253	3
90700	7.521242	0
90900	7.554303	2
91100	7.587437	1
91300	7.620644	2
91500	7.653923	0
91700	7.687275	0
91900	7.720699	0
92100	7.754196	0
92300	7.787765	0
92500	7.821406	0
92700	7.855121	0
92900	7.888907	0
93100	7.922766	0
93300	7.956698	0
93500	7.990702	0
93700	8.024779	4
93900	8.058928	0
94100	8.093150	0
94300	8.127444	0
94500	8.161811	0
94700	8.196250	0
94900	8.230762	0
95100	8.265346	0
95300	8.300003	0
95500	8.334732	0
95700	8.369534	0
95900	8.404408	0
96100	8.439355	0
96300	8.474374	0
96500	8.509466	0
96700	8.544630	0
96900	8.579867	0
97100	8.615176	0
97300	8.650558	0
97500	8.686012	0
97700	8.721539	0
97900	8.757139	0
98100	8.792810	0
98300	8.828555	0
98500	8.864372	0
98700	8.900261	1
98900	8.936223	0
99100	8.972257	0
99300	9.008364	0
99500	9.044544	1
99700	9.080795	0
99900	9.117120	0
100100	9.153517	0
100300	9.189986	0
100500	9.226528	0
100700	9.263142	0
100900	9.299829	0
101100	9.336589	0
101300	9.373421	1
101500	9.410325	0
101700	9.447302	0
101900	9.484352	0
102100	9.521474	0
102300	9.558668	0
102500	9.595935	0
102700	9.633274	0
102900	9.670686	0
103100	9.708171	0
103300	9.745728	0
103500	9.783357	0
103700	9.821059	0
103900	9.858834	0
104100	9.896681	0
104300	9.934601	0
104500	9.972593	0
104700	10.010657	12
104900	10.048794	0
105100	10.087004	0
105300	10.125286	0
105500	10.163640	0
105700	10.202067	0
105900	10.240567	0
106100	10.279139	0
106300	10.317784	0
106500	10.356501	0
106700	10.395290	0
106900	10.434153	0
107100	10.473087	0
107300	10.512094	0
107500	10.551174	0
107700	10.590326	0
107900	10.629551	0
108100	10.668848	0
108300	10.708218	0
108500	10.747660	0
108700	10.787174	0
108900	10.826762	0
109100	10.866421	1
109300	10.906153	0
109500	10.945958	0
109700	10.985835	0
109900	11.025785	28
110100	11.065807	0
110300	11.105902	0
110500	11.146069	0
110700	11.186309	0
110900	11.226621	0
111100	11.267006	0
111300	11.307463	0
111500	11.347993	0
111700	11.388595	0
111900	11.429270	0
112100	11.470017	0
112300	11.510837	0
112500	11.551729	1
112700	11.592694	0
112900	11.633731	2
113100	11.674841	1
113300	11.716024	1
113500	11.757278	0
113700	11.798606	0
113900	11.840005	0
114100	11.881478	0
114300	11.923023	1
114500	11.964640	87
114700	12.006330	46115
114900	12.048092	8
115100	12.089927	1
115300	12.131835	5
115500	12.173814	4
115700	12.215867	3
115900	12.257992	0
116100	12.300189	4
116300	12.342459	1
116500	12.384801	0
116700	12.427216	6
116900	12.469704	2
117100	12.512264	3
117300	12.554896	4
117500	12.597601	3
117700	12.640379	2
117900	12.683228	3
118100	12.726151	2
118300	12.769146	2
118500	12.812213	1
118700	12.855353	3
118900	12.898566	3
119100	12.941851	2
119300	12.985208	5951
119500	13.028638	161475
119700	13.072141	12
119900	13.115716	5
120100	13.159363	8
120300	13.203083	10
120500	13.246876	12
120700	13.290741	8
120900	13.334679	3
121100	13.378689	6
121300	13.422771	5
121500	13.466926	5
121700	13.511154	4
121900	13.555454	36
122100	13.599827	7
122300	13.644272	3
122500	13.688789	4
122700	13.733379	3
122900	13.778042	3
123100	13.822777	3
123300	13.867585	2
123500	13.912465	8
123700	13.957418	2
123900	14.002443	57859
124100	14.047540	111
124300	14.092710	7
124500	14.137953	9
124700	14.183268	8
124900	14.228656	6
125100	14.274116	7
125300	14.319649	5
125500	14.365254	4
125700	14.410932	2
125900	14.456682	4
126100	14.502505	5
126300	14.548400	3
126500	14.594368	72
126700	14.640408	7
126900	14.686521	4
127100	14.732706	3
127300	14.778964	1
127500	14.825294	4
127700	14.871697	2
127900	14.918172	0
128100	14.964720	4
128300	15.011340	81959
128500	15.058033	480
128700	15.104798	96
128900	15.151636	56
129100	15.198546	25
129300	15.245529	20
129500	15.292584	11
129700	15.339712	11
129900	15.386912	7
130100	15.434185	6
130300	15.481531	7
130500	15.528949	8
130700	15.576439	10
130900	15.624002	59
131100	15.671637	57
131300	15.719345	9
131500	15.767125	9
131700	15.814978	10
131900	15.862904	7
132100	15.910902	9
132300	15.958972	308
132500	16.007115	1340964
132700	16.055330	75
132900	16.103618	24
133100	16.151979	41
133300	16.200412	18
133500	16.248917	21
133700	16.297495	21
133900	16.346145	15
134100	16.394868	18
134300	16.443664	25
134500	16.492532	19
134700	16.541472	23
134900	16.590485	18
135100	16.639571	14
135300	16.688729	16
135500	16.737959	9
135700	16.787262	6
135900	16.836638	8
136100	16.886086	6
136300	16.935606	6
136500	16.985200	858927
136700	17.034865	9449
136900	17.084603	45
137100	17.134414	38
137300	17.184297	28
137500	17.234252	33
137700	17.284280	37
137900	17.334381	38
138100	17.384554	31
138300	17.434800	22
138500	17.485118	19
138700	17.535508	16
138900	17.585972	10
139100	17.636507	16
139300	17.687115	189
139500	17.737796	45
139700	17.788549	9
139900	17.839375	8
140100	17.890273	9
140300	17.941244	7
140500	17.992287	2904
140700	18.043402	16
140900	18.094591	4
141100	18.145851	9
141300	18.197184	8
141500	18.248590	6
141700	18.300068	3
141900	18.351619	7
142100	18.403242	10
142300	18.454938	4
142500	18.506706	6
142700	18.558547	7
142900	18.610460	2
143100	18.662446	2
143300	18.714504	4
143500	18.766635	5
143700	18.818838	7
143900	18.871114	1
144100	18.923462	2
144300	18.975883	54527
144500	19.028376	5722
144700	19.080942	7
144900	19.133580	2
145100	19.186291	1
145300	19.239075	6
145500	19.291930	3
145700	19.344859	4
145900	19.397860	2
146100	19.450933	2
146300	19.504079	2
146500	19.557297	2
146700	19.610588	3
146900	19.663951	1
147100	19.717387	0
147300	19.770896	1
147500	19.824476	3
147700	19.878130	2
147900	19.931856	3
148100	19.985654	3
148300	20.039525	6
148500	20.093468	2
148700	20.147484	3
148900	20.201573	2
149100	20.255734	1
149300	20.309967	1
149500	20.364273	2
149700	20.418652	2
149900	20.473103	1
150100	20.527626	0
150300	20.582222	1
150500	20.636891	0
150700	20.691632	2
150900	20.746445	1
151100	20.801331	0
151300	20.856290	0
151500	20.911321	1
151700	20.966424	1
151900	21.021600	6
152100	21.076849	1
152300	21.132170	1
152500	21.187563	1
152700	21.243029	1
152900	21.298568	1
153100	21.354179	1
153300	21.409862	0
153500	21.465618	0
153700	21.521447	0
153900	21.577348	0
154100	21.633322	1
154300	21.689368	1
154500	21.745486	0
154700	21.801678	1
154900	21.857941	0
155100	21.914277	2
155300	21.970686	1
155500	22.027167	12
155700	22.083721	2
155900	22.140347	2
156100	22.197046	0
156300	22.253817	0
156500	22.310660	0
156700	22.367577	3
156900	22.424565	0
157100	22.481626	0
157300	22.538760	1
157500	22.595966	0
157700	22.653245	0
157900	22.710596	0
158100	22.768020	1
158300	22.825516	0
158500	22.883085	4
158700	22.940726	2
158900	22.998440	1073
159100	23.056226	5
159300	23.114085	4
159500	23.172016	2
159700	23.230020	0
159900	23.288096	1
160100	23.346245	2
160300	23.404466	0
160500	23.462760	0
160700	23.521126	0
160900	23.579565	2
161100	23.638076	0
161300	23.696660	0
161500	23.755317	0
161700	23.814045	0
161900	23.872847	0
162100	23.931721	47
162300	23.990667	75373
162500	24.049686	105
162700	24.108777	13
162900	24.167941	7
163100	24.227177	4
163300	24.286486	7
163500	24.345868	7
163700	24.405322	8
163900	24.464848	7
164100	24.524447	4
164300	24.584118	2
164500	24.643862	3
164700	24.703679	5
164900	24.763568	6
165100	24.823529	4
165300	24.883563	3
165500	24.943669	11
165700	25.003848	269284
165900	25.064100	247
166100	25.124424	40
166300	25.184820	35
166500	25.245289	12
166700	25.305831	12
166900	25.366445	7
167100	25.427131	10
167300	25.487890	6
167500	25.548722	6
167700	25.609626	6
167900	25.670602	5
168100	25.731651	1
168300	25.792773	3
168500	25.853967	4
168700	25.915233	1
168900	25.976573	137163
169100	26.037984	19170
169300	26.099468	149
169500	26.161025	41
169700	26.222654	10
169900	26.284355	23
170100	26.346130	13
170300	26.407976	6
170500	26.469895	5
170700	26.531887	4
170900	26.593951	2
171100	26.656088	6
171300	26.718297	6
171500	26.780578	1
171700	26.842933	2
171900	26.905359	1
172100	26.967858	120
172300	27.030430	32337
172500	27.093074	27
172700	27.155791	16
172900	27.218580	4
173100	27.281442	3
173300	27.344376	5
173500	27.407383	6
173700	27.470462	1
173900	27.533614	5
174100	27.596838	2
174300	27.660134	4
174500	27.723504	3
174700	27.786945	2
174900	27.850460	1
175100	27.914046	5
175300	27.977706	1346
175500	28.041437	781
175700	28.105242	7
175900	28.169118	5
176100	28.233068	1
176300	28.297090	1
176500	28.361184	0
176700	28.425351	3
176900	28.489590	4
177100	28.553902	1
177300	28.618286	2
177500	28.682743	2
177700	28.747272	3
177900	28.811874	4
178100	28.876548	3
178300	28.941295	135
178500	29.006115	5288
178700	29.071007	9
178900	29.135971	7
179100	29.201008	0
179300	29.266117	2
179500	29.331299	4
179700	29.396553	5
179900	29.461880	2
180100	29.527280	3
180300	29.592752	2
180500	29.658296	1
180700	29.723913	3
180900	29.789602	1
181100	29.855364	5
181300	29.921199	6
181500	29.987106	2448
181700	30.053085	17
181900	30.119137	2
182100	30.185262	5
182300	30.251459	2
182500	30.317728	7
182700	30.384070	3
182900	30.450485	4
183100	30.516972	3
183300	30.583531	3
183500	30.650163	4
183700	30.716868	4
183900	30.783645	5
184100	30.850494	2
184300	30.917416	3
184500	30.984411	1379
184700	31.051478	2493
184900	31.118617	4
185100	31.185829	2
185300	31.253114	3
185500	31.320471	1
185700	31.387901	4
185900	31.455403	3
186100	31.522977	6
186300	31.590625	2
186500	31.658344	4
186700	31.726136	4
186900	31.794001	3
187100	31.861938	4
187300	31.929948	11
187500	31.998030	47831
187700	32.066184	13
187900	32.134412	4
188100	32.202711	4
188300	32.271083	5
188500	32.339528	4
188700	32.408045	2
188900	32.476635	3
189100	32.545297	4
189300	32.614032	3
189500	32.682839	4
189700	32.751719	2
189900	32.820671	2
190100	32.889696	4
190300	32.958793	2942
190500	33.027963	8118
190700	33.097205	9
190900	33.166520	10
191100	33.235907	2
191300	33.305367	17
191500	33.374899	16
191700	33.444504	9
191900	33.514181	5
192100	33.583931	3
192300	33.653753	2
192500	33.723648	4
192700	33.793615	3
192900	33.863655	5
193100	33.933767	111
193300	34.003952	680
193500	34.074209	4
193700	34.144539	3
193900	34.214942	3
194100	34.285416	1
194300	34.355964	2
194500	34.426584	3
194700	34.497276	3
194900	34.568041	2
195100	34.638878	4
195300	34.709788	8
195500	34.780771	3
195700	34.851825	6
195900	34.922953	528
196100	34.994153	3944721
196300	35.065425	212
196500	35.136770	238
196700	35.208187	249
196900	35.279677	211
197100	35.351240	182
197300	35.422875	114
197500	35.494582	86
197700	35.566362	71
197900	35.638215	60
198100	35.710140	73
198300	35.782137	63
198500	35.854207	31
198700	35.926350	28
198900	35.998565	8152
199100	36.070852	37
199300	36.143212	39
199500	36.215645	27
199700	36.288150	23
199900	36.360727	24
200100	36.433377	17
200300	36.506100	10
200500	36.578895	13
200700	36.651762	11
200900	36.724702	7
201100	36.797715	5
201300	36.870800	16
201500	36.943958	1346927
201700	37.017188	27746
201900	37.090490	389
202100	37.163865	220
202300	37.237313	113
202500	37.310833	77
202700	37.384426	49
202900	37.458091	53
203100	37.531829	55
203300	37.605639	28
203500	37.679521	30
203700	37.753476	27
203900	37.827504	15
204100	37.901604	19
204300	37.975777	1959
204500	38.050022	7655
204700	38.124340	16
204900	38.198730	17
205100	38.273193	12
205300	38.347728	15
205500	38.422336	11
205700	38.497016	9
205900	38.571768	12
206100	38.646594	9
206300	38.721491	18
206500	38.796462	8
206700	38.871504	3
206900	38.946620	336
