# Binning: 200 channels
# Deadtime Correction: on
Channel	m/z	Intensity
100	0.000278	0
300	0.000518	151
500	0.000830	0
700	0.001217	0
900	0.001677	1
1100	0.002210	0
1300	0.002817	15
1500	0.003498	27
1700	0.004252	11
1900	0.005080	4
2100	0.005981	1
2300	0.006956	0
2500	0.008004	0
2700	0.009127	1
2900	0.010322	1
3100	0.011591	0
3300	0.012934	0
3500	0.014350	1
3700	0.015840	0
3900	0.017404	0
4100	0.019041	0
4300	0.020751	0
4500	0.022535	0
4700	0.024393	0
4900	0.026325	0
5100	0.028329	0
5300	0.030408	0
5500	0.032560	0
5700	0.034785	0
5900	0.037085	0
6100	0.039457	0
6300	0.041904	0
6500	0.044423	0
6700	0.047017	0
6900	0.049684	0
7100	0.052424	0
7300	0.055239	0
7500	0.058126	0
7700	0.061088	0
7900	0.064122	0
8100	0.067231	0
8300	0.070413	0
8500	0.073668	0
8700	0.076998	0
8900	0.080400	1
9100	0.083877	0
9300	0.087426	0
9500	0.091050	0
9700	0.094747	0
9900	0.098517	0
10100	0.102361	1
10300	0.106279	0
10500	0.110270	0
10700	0.114335	0
10900	0.118474	0
11100	0.122686	0
11300	0.126971	0
11500	0.131330	0
11700	0.135763	0
11900	0.140269	0
12100	0.144849	0
12300	0.149502	0
12500	0.154229	0
12700	0.159030	0
12900	0.163904	0
13100	0.168851	0
13300	0.173873	0
13500	0.178968	0
13700	0.184136	0
13900	0.189378	0
14100	0.194693	0
14300	0.200082	0
14500	0.205545	0
14700	0.211081	0
14900	0.216691	0
15100	0.222374	0
15300	0.228131	0
15500	0.233962	0
15700	0.239866	1
15900	0.245844	0
16100	0.251895	0
16300	0.258020	0
16500	0.264218	0
16700	0.270490	0
16900	0.276835	0
17100	0.283254	0
17300	0.289747	0
17500	0.296313	0
17700	0.302953	0
17900	0.309666	0
18100	0.316453	0
18300	0.323314	0
18500	0.330248	0
18700	0.337255	0
18900	0.344336	0
19100	0.351491	0
19300	0.358720	0
19500	0.366021	0
19700	0.373397	0
19900	0.380846	0
20100	0.388369	0
20300	0.395965	0
20500	0.403634	0
20700	0.411378	0
20900	0.419195	0
21100	0.427085	0
21300	0.435049	0
21500	0.443087	0
21700	0.451198	0
21900	0.459383	0
22100	0.467641	0
22300	0.475973	0
22500	0.484378	0
22700	0.492857	0
22900	0.501410	0
23100	0.510036	0
23300	0.518736	0
23500	0.527509	0
23700	0.536356	0
23900	0.545276	0
24100	0.554270	0
24300	0.563338	0
24500	0.572479	0
24700	0.581694	0
24900	0.590982	0
25100	0.600344	0
25300	0.609779	0
25500	0.619288	0
25700	0.628871	0
25900	0.638527	0
26100	0.648256	0
26300	0.658060	0
26500	0.667936	0
26700	0.677887	0
26900	0.687911	0
27100	0.698008	1
27300	0.708180	0
27500	0.718424	0
27700	0.728742	0
27900	0.739134	0
28100	0.749600	0
28300	0.760139	0
28500	0.770751	0
28700	0.781437	0
28900	0.792197	0
29100	0.803030	0
29300	0.813937	0
29500	0.824917	0
29700	0.835971	0
29900	0.847099	0
30100	0.858300	0
30300	0.869574	0
30500	0.880923	0
30700	0.892345	0
30900	0.903840	1
31100	0.915409	0
31300	0.927051	0
31500	0.938767	6
31700	0.950557	2
31900	0.962420	56
32100	0.974357	41
32300	0.986367	33
32500	0.998451	207
32700	1.010609	1733793
32900	1.022840	252
33100	1.035144	71
33300	1.047523	61
33500	1.059974	36
33700	1.072500	32
33900	1.085099	24
34100	1.097771	18
34300	1.110517	19
34500	1.123337	23
34700	1.136230	17
34900	1.149197	12
35100	1.162237	9
35300	1.175351	9
35500	1.188538	9
35700	1.201799	2
35900	1.215134	5
36100	1.228542	7
36300	1.242024	3
36500	1.255579	1
36700	1.269208	2
36900	1.282911	3
37100	1.296687	1
37300	1.310536	1
37500	1.324459	1
37700	1.338456	5
37900	1.352526	0
38100	1.366670	1
38300	1.380888	1
38500	1.395179	2
38700	1.409543	0
38900	1.423982	3
39100	1.438493	1
39300	1.453079	0
39500	1.467737	1
39700	1.482470	1
39900	1.497276	1
40100	1.512155	1
40300	1.527109	1
40500	1.542135	1
40700	1.557235	1
40900	1.572409	1
41100	1.587657	1
41300	1.602978	2
41500	1.618372	0
41700	1.633840	2
41900	1.649382	0
42100	1.664997	0
42300	1.680686	0
42500	1.696449	1
42700	1.712285	1
42900	1.728194	1
43100	1.744177	0
43300	1.760234	3
43500	1.776364	0
43700	1.792568	0
43900	1.808845	0
44100	1.825196	0
44300	1.841621	0
44500	1.858119	1
44700	1.874691	0
44900	1.891336	1
45100	1.908055	0
45300	1.924847	0
45500	1.941713	1
45700	1.958653	0
45900	1.975666	2
46100	1.992752	1
46300	2.009913	198
46500	2.027146	1
46700	2.044454	0
46900	2.061835	0
47100	2.079289	0
47300	2.096817	2
47500	2.114419	1
47700	2.132094	0
47900	2.149843	0
48100	2.167665	0
48300	2.185561	0
48500	2.203531	0
48700	2.221574	0
48900	2.239690	0
49100	2.257881	0
49300	2.276144	0
49500	2.294482	0
49700	2.312893	0
49900	2.331377	0
50100	2.349935	0
50300	2.368567	0
50500	2.387272	0
50700	2.406051	0
50900	2.424903	0
51100	2.443829	1
51300	2.462828	0
51500	2.481901	0
51700	2.501048	1
51900	2.520268	0
52100	2.539562	0
52300	2.558929	1
52500	2.578370	0
52700	2.597885	0
52900	2.617473	0
53100	2.637134	1
53300	2.656869	0
53500	2.676678	0
53700	2.696560	1
53900	2.716516	0
54100	2.736546	0
54300	2.756649	1
54500	2.776825	0
54700	2.797076	0
54900	2.817399	0
55100	2.837797	0
55300	2.858267	0
55500	2.878812	0
55700	2.899430	1
55900	2.920121	0
56100	2.940887	0
56300	2.961725	0
56500	2.982638	0
56700	3.003623	0
56900	3.024683	0
57100	3.045816	1
57300	3.067022	1
57500	3.088303	0
57700	3.109656	0
57900	3.131083	0
58100	3.152584	0
58300	3.174159	0
58500	3.195807	0
58700	3.217528	0
58900	3.239323	0
59100	3.261192	0
59300	3.283134	0
59500	3.305150	0
59700	3.327240	0
59900	3.349403	1
60100	3.371639	0
60300	3.393949	0
60500	3.416333	0
60700	3.438790	0
60900	3.461321	0
61100	3.483925	0
61300	3.506603	0
61500	3.529355	0
61700	3.552180	0
61900	3.575078	0
62100	3.598051	0
62300	3.621097	0
62500	3.644216	1
62700	3.667409	1
62900	3.690675	1
63100	3.714015	4
63300	3.737429	0
63500	3.760916	0
63700	3.784477	0
63900	3.808111	0
64100	3.831819	0
64300	3.855601	0
64500	3.879456	1
64700	3.903385	0
64900	3.927387	0
65100	3.951463	2
65300	3.975612	1
65500	3.999835	0
65700	4.024131	2
65900	4.048501	0
66100	4.072945	0
66300	4.097462	0
66500	4.122053	0
66700	4.146717	0
66900	4.171455	0
67100	4.196267	0
67300	4.221152	0
67500	4.246110	0
67700	4.271143	0
67900	4.296248	0
68100	4.321428	0
68300	4.346681	0
68500	4.372007	0
68700	4.397407	0
68900	4.422881	0
69100	4.448428	0
69300	4.474049	0
69500	4.499743	0
69700	4.525511	0
69900	4.551352	0
70100	4.577267	0
70300	4.603256	0
70500	4.629318	0
70700	4.655454	0
70900	4.681663	0
71100	4.707946	0
71300	4.734302	0
71500	4.760732	0
71700	4.787236	0
71900	4.813813	0
72100	4.840464	0
72300	4.867188	0
72500	4.893986	0
72700	4.920857	0
72900	4.947802	0
73100	4.974821	0
73300	5.001913	0
73500	5.029079	0
73700	5.056318	0
73900	5.083631	0
74100	5.111017	0
74300	5.138477	0
74500	5.166011	0
74700	5.193618	0
74900	5.221299	1
75100	5.249053	0
75300	5.276881	0
75500	5.304782	0
75700	5.332757	0
75900	5.360806	1
76100	5.388928	0
76300	5.417123	0
76500	5.445393	0
76700	5.473735	0
76900	5.502152	0
77100	5.530642	0
77300	5.559205	0
77500	5.587842	0
77700	5.616553	0
77900	5.645337	0
78100	5.674195	0
78300	5.703126	0
78500	5.732131	0
78700	5.761210	0
78900	5.790362	0
79100	5.819588	0
79300	5.848887	0
79500	5.878260	0
79700	5.907706	0
79900	5.937226	0
80100	5.966820	0
80300	5.996487	0
80500	6.026227	8
80700	6.056041	0
80900	6.085929	0
81100	6.115891	0
81300	6.145926	1
81500	6.176034	1
81700	6.206216	1
81900	6.236472	0
82100	6.266801	0
82300	6.297204	0
82500	6.327680	0
82700	6.358230	0
82900	6.388853	0
83100	6.419550	0
83300	6.450321	0
83500	6.481165	1
83700	6.512083	1
83900	6.543074	2
84100	6.574139	0
84300	6.605278	1
84500	6.636490	0
84700	6.667775	0
84900	6.699135	0
85100	6.730567	1
85300	6.762074	0
85500	6.793653	0
85700	6.825307	0
85900	6.857034	1
86100	6.888835	0
86300	6.920709	0
86500	6.952656	0
86700	6.984678	2
86900	7.016773	58
87100	7.048941	4
87300	7.081183	3
87500	7.113499	0
87700	7.145888	1
87900	7.178351	1
88100	7.210887	0
88300	7.243497	1
88500	7.276180	1
88700	7.308937	0
88900	7.341768	1
89100	7.374672	0
89300	7.407650	2
89500	7.440701	1
89700	7.473826	0
89900	7.507024	1
90100	7.540296	0
90300	7.573642	0
90500	7.607061	2
90700	7.640553	0
90900	7.674120	0
91100	7.707760	0
91300	7.741473	0
91500	7.775260	1
91700	7.809120	0
91900	7.843055	0
92100	7.877062	0
92300	7.911144	0
92500	7.945298	0
92700	7.979527	0
92900	8.013829	17
93100	8.048204	0
93300	8.082653	0
93500	8.117176	0
93700	8.151772	0
93900	8.186442	0
94100	8.221185	0
94300	8.256002	0
94500	8.290893	0
94700	8.325857	0
94900	8.360895	0
95100	8.396006	0
95300	8.431191	0
95500	8.466449	0
95700	8.501781	0
95900	8.537187	0
96100	8.572666	0
96300	8.608218	0
96500	8.643844	0
96700	8.679544	0
96900	8.715318	0
97100	8.751165	0
97300	8.787085	0
97500	8.823079	0
97700	8.859147	0
97900	8.895288	0
98100	8.931503	0
98300	8.967791	0
98500	9.004153	0
98700	9.040588	13
98900	9.077098	0
99100	9.113680	0
99300	9.150336	0
99500	9.187066	0
99700	9.223869	0
99900	9.260746	0
100100	9.297697	0
100300	9.334721	0
100500	9.371818	0
100700	9.408990	0
100900	9.446234	0
101100	9.483553	0
101300	9.520945	0
101500	9.558410	0
101700	9.595949	0
101900	9.633562	0
102100	9.671248	0
102300	9.709008	0
102500	9.746841	0
102700	9.784748	0
102900	9.822728	0
103100	9.860782	0
103300	9.898910	0
103500	9.937111	0
103700	9.975386	0
103900	10.013734	4
104100	10.052156	0
104300	10.090651	0
104500	10.129220	0
104700	10.167863	0
104900	10.206579	0
105100	10.245369	0
105300	10.284232	0
105500	10.323169	0
105700	10.362179	0
105900	10.401263	0
106100	10.440421	0
106300	10.479652	2
106500	10.518957	0
106700	10.558335	0
106900	10.597787	0
107100	10.637312	0
107300	10.676911	0
107500	10.716584	0
107700	10.756330	0
107900	10.796150	0
108100	10.836043	0
108300	10.876010	0
108500	10.916050	0
108700	10.956164	1
108900	10.996352	16
109100	11.036613	1
109300	11.076947	0
109500	11.117356	0
109700	11.157837	1
109900	11.198393	0
110100	11.239022	1
110300	11.279724	0
110500	11.320500	0
110700	11.361350	0
110900	11.402273	0
111100	11.443270	0
111300	11.484340	1
111500	11.525484	0
111700	11.566702	0
111900	11.607993	0
112100	11.649358	1
112300	11.690796	0
112500	11.732308	0
112700	11.773893	0
112900	11.815552	0
113100	11.857284	0
113300	11.899091	0
113500	11.940970	3
113700	11.982923	34047
113900	12.024950	1648
114100	12.067051	2
114300	12.109224	1
114500	12.151472	4
114700	12.193793	1
114900	12.236188	1
115100	12.278656	3
115300	12.321198	0
115500	12.363813	0
115700	12.406502	1
115900	12.449264	2
116100	12.492100	2
116300	12.535010	1
116500	12.577993	4
116700	12.621050	1
116900	12.664180	2
117100	12.707384	1
117300	12.750662	1
117500	12.794013	2
117700	12.837437	1
117900	12.880935	2
118100	12.924507	1
118300	12.968152	9
118500	13.011871	106330
118700	13.055664	24
118900	13.099530	2
119100	13.143469	7
119300	13.187483	8
119500	13.231569	12
119700	13.275730	4
119900	13.319963	5
120100	13.364271	4
120300	13.408652	4
120500	13.453107	5
120700	13.497635	4
120900	13.542236	24
121100	13.586912	4
121300	13.631661	1
121500	13.676483	0
121700	13.721379	1
121900	13.766349	5
122100	13.811392	1
122300	13.856508	5
122500	13.901699	1
122700	13.946962	3
122900	13.992300	9434
123100	14.037711	35828
123300	14.083195	11
123500	14.128754	8
123700	14.174385	4
123900	14.220091	5
124100	14.265869	6
124300	14.311722	8
124500	14.357648	2
124700	14.403647	5
124900	14.449720	9
125100	14.495867	4
125300	14.542087	2
125500	14.588381	38
125700	14.634749	6
125900	14.681190	4
126100	14.727704	6
126300	14.774292	3
126500	14.820954	1
126700	14.867689	3
126900	14.914498	2
127100	14.961380	2
127300	15.008336	75334
127500	15.055366	959
127700	15.102469	56
127900	15.149645	31
128100	15.196896	22
128300	15.244219	16
128500	15.291617	11
128700	15.339088	10
128900	15.386632	6
129100	15.434250	9
129300	15.481942	9
129500	15.529707	7
129700	15.577546	8
129900	15.625458	85
130100	15.673444	15
130300	15.721504	8
130500	15.769637	4
130700	15.817843	21
130900	15.866124	6
131100	15.914477	9
131300	15.962905	306
131500	16.011406	518492
131700	16.059980	71
131900	16.108628	17
132100	16.157350	21
132300	16.206145	23
132500	16.255014	7
132700	16.303956	7
132900	16.352972	7
133100	16.402062	13
133300	16.451225	7
133500	16.500461	12
133700	16.549771	5
133900	16.599155	7
134100	16.648612	0
134300	16.698143	3
134500	16.747748	7
134700	16.797426	0
134900	16.847177	18
135100	16.897003	6
135300	16.946901	10
135500	16.996874	468876
135700	17.046919	661
135900	17.097039	45
136100	17.147232	23
136300	17.197498	24
136500	17.247839	16
136700	17.298252	18
136900	17.348740	11
137100	17.399301	13
137300	17.449935	10
137500	17.500643	12
137700	17.551425	11
137900	17.602280	6
138100	17.653208	6
138300	17.704211	92
138500	17.755287	11
138700	17.806436	6
138900	17.857659	4
139100	17.908955	8
139300	17.960326	4
139500	18.011769	1157
139700	18.063287	7
139900	18.114877	3
140100	18.166542	6
140300	18.218280	3
140500	18.270091	2
140700	18.321976	1
140900	18.373935	4
141100	18.425967	2
141300	18.478073	5
141500	18.530253	2
141700	18.582506	5
141900	18.634832	0
142100	18.687232	4
142300	18.739706	1
142500	18.792253	3
142700	18.844874	2
142900	18.897568	6
143100	18.950336	7
143300	19.003178	29095
143500	19.056093	31
143700	19.109082	4
143900	19.162144	5
144100	19.215280	4
144300	19.268489	2
144500	19.321772	2
144700	19.375128	2
144900	19.428559	3
145100	19.482062	1
145300	19.535639	0
145500	19.589290	1
145700	19.643015	0
145900	19.696812	0
146100	19.750684	2
146300	19.804629	2
146500	19.858648	0
146700	19.912740	0
146900	19.966906	1
147100	20.021145	1
147300	20.075458	2
147500	20.129844	2
147700	20.184304	4
147900	20.238838	2
148100	20.293445	1
148300	20.348126	0
148500	20.402880	1
148700	20.457708	1
148900	20.512610	0
149100	20.567585	0
149300	20.622633	1
149500	20.677756	0
149700	20.732951	0
149900	20.788221	0
150100	20.843564	0
150300	20.898980	1
150500	20.954470	0
150700	21.010034	4
150900	21.065671	0
151100	21.121382	0
151300	21.177166	0
151500	21.233024	1
151700	21.288955	0
151900	21.344960	0
152100	21.401039	3
152300	21.457191	1
152500	21.513417	0
152700	21.569716	0
152900	21.626089	0
153100	21.682535	0
153300	21.739055	0
153500	21.795649	0
153700	21.852316	0
153900	21.909057	0
154100	21.965871	2
154300	22.022759	24
154500	22.079720	2
154700	22.136755	2
154900	22.193864	0
155100	22.251046	0
155300	22.308302	0
155500	22.365631	0
155700	22.423034	0
155900	22.480510	1
156100	22.538060	1
156300	22.595684	1
156500	22.653381	0
156700	22.711152	2
156900	22.768996	1
157100	22.826914	0
157300	22.884905	0
157500	22.942970	4
157700	23.001109	1144
157900	23.059321	13
158100	23.117606	0
158300	23.175966	1
158500	23.234399	1
158700	23.292905	0
158900	23.351485	1
159100	23.410138	1
159300	23.468865	0
159500	23.527666	1
159700	23.586540	1
159900	23.645488	1
160100	23.704510	1
160300	23.763605	2
160500	23.822773	3
160700	23.882015	0
160900	23.941331	205
161100	24.000720	97817
161300	24.060183	95
161500	24.119719	16
161700	24.179329	8
161900	24.239013	12
162100	24.298770	6
162300	24.358600	6
162500	24.418505	7
162700	24.478482	8
162900	24.538534	7
163100	24.598659	5
163300	24.658857	4
163500	24.719129	5
163700	24.779475	18
163900	24.839894	11
164100	24.900387	7
164300	24.960953	311
164500	25.021593	390927
164700	25.082306	291
164900	25.143094	94
165100	25.203954	49
165300	25.264888	19
165500	25.325896	17
165700	25.386977	7
165900	25.448132	14
166100	25.509361	17
166300	25.570663	8
166500	25.632038	6
166700	25.693488	6
166900	25.755010	5
167100	25.816607	20
167300	25.878277	6
167500	25.940020	11
167700	26.001837	237486
167900	26.063728	2837
168100	26.125692	501
168300	26.187730	183
168500	26.249841	114
168700	26.312026	34
168900	26.374284	31
169100	26.436616	24
169300	26.499022	26
169500	26.561501	13
169700	26.624054	11
169900	26.686680	7
170100	26.749380	9
170300	26.812153	7
170500	26.875000	0
170700	26.937921	3
170900	27.000915	33598
171100	27.063983	506
171300	27.127124	23
171500	27.190339	12
171700	27.253627	8
171900	27.316989	8
172100	27.380425	8
172300	27.443934	5
172500	27.507517	1
172700	27.571173	5
172900	27.634903	1
173100	27.698706	2
173300	27.762583	6
173500	27.826534	3
173700	27.890558	3
173900	27.954655	926
174100	28.018827	891
174300	28.083071	3
174500	28.147390	4
174700	28.211782	2
174900	28.276247	0
175100	28.340786	1
175300	28.405399	1
175500	28.470085	3
175700	28.534845	1
175900	28.599679	2
176100	28.664585	0
176300	28.729566	1
176500	28.794620	1
176700	28.859748	0
176900	28.924949	51
177100	28.990224	4941
177300	29.055572	21
177500	29.120994	3
177700	29.186490	2
177900	29.252059	1
178100	29.317701	1
178300	29.383418	2
178500	29.449207	1
178700	29.515071	0
178900	29.581008	1
179100	29.647018	4
179300	29.713102	3
179500	29.779260	2
179700	29.845491	2
179900	29.911796	0
180100	29.978174	796
180300	30.044626	29
180500	30.111152	3
180700	30.177751	3
180900	30.244423	0
181100	30.311169	2
181300	30.377989	3
181500	30.444882	0
181700	30.511849	2
181900	30.578890	3
182100	30.646004	3
182300	30.713192	2
182500	30.780453	2
182700	30.847787	0
182900	30.915196	0
183100	30.982678	681
183300	31.050233	2247
183500	31.117862	7
183700	31.185565	0
183900	31.253341	1
184100	31.321191	1
184300	31.389114	2
184500	31.457111	0
184700	31.525181	1
184900	31.593325	3
185100	31.661543	0
185300	31.729834	4
185500	31.798199	2
185700	31.866637	2
185900	31.935149	228
186100	32.003734	22156
186300	32.072393	10
186500	32.141126	9
186700	32.209932	2
186900	32.278812	7
187100	32.347765	3
187300	32.416792	4
187500	32.485892	3
187700	32.555066	0
187900	32.624314	1
188100	32.693635	2
188300	32.763030	1
188500	32.832498	2
188700	32.902040	3
188900	32.971655	6710
189100	33.041344	125
189300	33.111107	7
189500	33.180943	5
189700	33.250853	4
189900	33.320836	12
190100	33.390893	4
190300	33.461023	5
190500	33.531227	4
190700	33.601505	4
190900	33.671856	6
191100	33.742280	2
191300	33.812779	3
191500	33.883350	1
191700	33.953996	166
191900	34.024715	368
192100	34.095507	0
192300	34.166373	2
192500	34.237313	0
192700	34.308326	0
192900	34.379413	0
193100	34.450573	1
193300	34.521807	7
193500	34.593115	3
193700	34.664496	2
193900	34.735951	162
194100	34.807479	15
194300	34.879081	119
194500	34.950756	4167966
194700	35.022505	47844
194900	35.094327	727
195100	35.166224	834
195300	35.238193	776
195500	35.310236	539
195700	35.382353	368
195900	35.454544	263
196100	35.526807	185
196300	35.599145	136
196500	35.671556	114
196700	35.744041	112
196900	35.816599	90
197100	35.889231	54
197300	35.961936	5608
197500	36.034715	13878
197700	36.107567	37
197900	36.180493	42
198100	36.253493	48
198300	36.326566	25
198500	36.399713	31
198700	36.472933	15
198900	36.546227	22
199100	36.619595	15
199300	36.693036	57
199500	36.766550	23
199700	36.840138	19
199900	36.913800	699
200100	36.987535	1505533
200300	37.061344	2850
200500	37.135227	1069
200700	37.209183	512
200900	37.283212	248
201100	37.357316	148
201300	37.431492	112
201500	37.505743	86
201700	37.580066	54
201900	37.654464	54
202100	37.728935	51
202300	37.803480	30
202500	37.878098	21
202700	37.952789	109
202900	38.027555	15091
203100	38.102394	19
203300	38.177306	33
203500	38.252292	21
203700	38.327352	24
203900	38.402485	16
204100	38.477691	10
204300	38.552972	15
204500	38.628325	12
204700	38.703753	11
204900	38.779254	14
205100	38.854828	9
205300	38.930477	191
205500	39.006198	10196
205700	39.081994	77
205900	39.157862	13
206100	39.233805	9
206300	39.309821	5
206500	39.385910	7
206700	39.462073	6
