# Binning: 200 channels
# Deadtime Correction: on
Channel	m/z	Intensity
100	0.000280	0
300	0.000520	54
500	0.000834	1
700	0.001222	1
900	0.001683	0
1100	0.002218	0
1300	0.002827	13
1500	0.003509	33
1700	0.004265	14
1900	0.005095	1
2100	0.005998	0
2300	0.006975	1
2500	0.008026	1
2700	0.009151	2
2900	0.010349	0
3100	0.011621	1
3300	0.012967	0
3500	0.014386	2
3700	0.015879	0
3900	0.017446	0
4100	0.019087	0
4300	0.020801	2
4500	0.022589	1
4700	0.024450	0
4900	0.026386	1
5100	0.028395	1
5300	0.030477	1
5500	0.032634	1
5700	0.034864	0
5900	0.037168	0
6100	0.039545	0
6300	0.041997	1
6500	0.044522	0
6700	0.047120	0
6900	0.049793	0
7100	0.052539	0
7300	0.055359	0
7500	0.058252	0
7700	0.061219	1
7900	0.064260	0
8100	0.067375	1
8300	0.070563	0
8500	0.073825	0
8700	0.077161	0
8900	0.080570	0
9100	0.084053	0
9300	0.087610	0
9500	0.091241	0
9700	0.094945	1
9900	0.098723	0
10100	0.102575	0
10300	0.106500	1
10500	0.110499	0
10700	0.114572	0
10900	0.118718	1
11100	0.122939	1
11300	0.127232	0
11500	0.131600	0
11700	0.136041	0
11900	0.140556	0
12100	0.145145	0
12300	0.149808	0
12500	0.154544	1
12700	0.159353	0
12900	0.164237	1
13100	0.169194	1
13300	0.174225	0
13500	0.179330	0
13700	0.184508	0
13900	0.189760	0
14100	0.195086	0
14300	0.200486	0
14500	0.205959	0
14700	0.211506	0
14900	0.217126	0
15100	0.222820	1
15300	0.228588	0
15500	0.234430	0
15700	0.240346	0
15900	0.246335	0
16100	0.252397	0
16300	0.258534	1
16500	0.264744	0
16700	0.271028	0
16900	0.277386	0
17100	0.283817	0
17300	0.290322	0
17500	0.296901	0
17700	0.303553	0
17900	0.310280	0
18100	0.317079	0
18300	0.323953	0
18500	0.330900	0
18700	0.337921	0
18900	0.345016	0
19100	0.352184	1
19300	0.359426	0
19500	0.366742	0
19700	0.374132	0
19900	0.381595	0
20100	0.389132	0
20300	0.396743	0
20500	0.404427	0
20700	0.412185	0
20900	0.420017	0
21100	0.427922	0
21300	0.435901	0
21500	0.443954	0
21700	0.452081	0
21900	0.460281	0
22100	0.468555	0
22300	0.476903	0
22500	0.485324	0
22700	0.493819	0
22900	0.502388	0
23100	0.511030	0
23300	0.519747	0
23500	0.528536	0
23700	0.537400	0
23900	0.546337	0
24100	0.555348	0
24300	0.564433	0
24500	0.573592	0
24700	0.582824	0
24900	0.592130	0
25100	0.601509	0
25300	0.610962	0
25500	0.620489	0
25700	0.630090	0
25900	0.639764	0
26100	0.649512	0
26300	0.659334	0
26500	0.669230	0
26700	0.679199	0
26900	0.689242	0
27100	0.699358	0
27300	0.709549	0
27500	0.719813	0
27700	0.730150	0
27900	0.740562	0
28100	0.751047	0
28300	0.761606	0
28500	0.772238	0
28700	0.782944	0
28900	0.793724	0
29100	0.804578	0
29300	0.815505	1
29500	0.826506	1
29700	0.837581	0
29900	0.848730	0
30100	0.859952	0
30300	0.871248	0
30500	0.882617	0
30700	0.894061	0
30900	0.905578	0
31100	0.917168	0
31300	0.928833	0
31500	0.940571	1
31700	0.952383	1
31900	0.964268	25
32100	0.976227	9
32300	0.988260	16
32500	1.000367	186
32700	1.012547	541147
32900	1.024801	63
33100	1.037129	26
33300	1.049531	19
33500	1.062006	13
33700	1.074555	10
33900	1.087177	9
34100	1.099873	5
34300	1.112643	5
34500	1.125487	2
34700	1.138405	4
34900	1.151396	1
35100	1.164460	1
35300	1.177599	1
35500	1.190811	1
35700	1.204097	0
35900	1.217457	0
36100	1.230890	0
36300	1.244397	0
36500	1.257978	1
36700	1.271632	0
36900	1.285360	1
37100	1.299162	1
37300	1.313038	0
37500	1.326987	0
37700	1.341010	0
37900	1.355107	0
38100	1.369277	0
38300	1.383521	0
38500	1.397839	0
38700	1.412230	0
38900	1.426696	0
39100	1.441235	0
39300	1.455847	0
39500	1.470533	0
39700	1.485294	1
39900	1.500127	0
40100	1.515035	0
40300	1.530016	0
40500	1.545071	0
40700	1.560199	0
40900	1.575401	0
41100	1.590677	0
41300	1.606027	1
41500	1.621450	0
41700	1.636948	0
41900	1.652518	0
42100	1.668163	0
42300	1.683881	0
42500	1.699673	0
42700	1.715538	0
42900	1.731478	0
43100	1.747491	0
43300	1.763577	0
43500	1.779738	0
43700	1.795972	0
43900	1.812280	0
44100	1.828661	0
44300	1.845117	0
44500	1.861646	0
44700	1.878248	0
44900	1.894925	0
45100	1.911675	0
45300	1.928498	0
45500	1.945396	0
45700	1.962367	1
45900	1.979412	0
46100	1.996530	0
46300	2.013723	46
46500	2.030989	0
46700	2.048328	0
46900	2.065742	0
47100	2.083229	0
47300	2.100790	0
47500	2.118424	0
47700	2.136133	0
47900	2.153914	0
48100	2.171770	0
48300	2.189699	0
48500	2.207702	0
48700	2.225779	0
48900	2.243930	0
49100	2.262154	0
49300	2.280452	0
49500	2.298823	1
49700	2.317269	0
49900	2.335788	0
50100	2.354380	0
50300	2.373047	0
50500	2.391787	0
50700	2.410601	0
50900	2.429488	0
51100	2.448449	0
51300	2.467484	0
51500	2.486593	0
51700	2.505775	0
51900	2.525031	0
52100	2.544361	0
52300	2.563764	0
52500	2.583241	0
52700	2.602792	0
52900	2.622417	0
53100	2.642115	0
53300	2.661887	0
53500	2.681733	0
53700	2.701652	0
53900	2.721645	0
54100	2.741712	0
54300	2.761853	0
54500	2.782067	0
54700	2.802355	0
54900	2.822716	0
55100	2.843152	1
55300	2.863661	0
55500	2.884243	0
55700	2.904900	0
55900	2.925630	0
56100	2.946434	0
56300	2.967311	0
56500	2.988263	0
56700	3.009287	0
56900	3.030386	0
57100	3.051558	1
57300	3.072805	0
57500	3.094124	0
57700	3.115518	0
57900	3.136985	0
58100	3.158526	0
58300	3.180140	0
58500	3.201829	0
58700	3.223591	0
58900	3.245427	0
59100	3.267336	0
59300	3.289319	0
59500	3.311376	0
59700	3.333506	0
59900	3.355711	0
60100	3.377989	0
60300	3.400340	0
60500	3.422766	0
60700	3.445265	0
60900	3.467837	0
61100	3.490484	0
61300	3.513204	0
61500	3.535998	0
61700	3.558866	0
61900	3.581807	0
62100	3.604822	0
62300	3.627910	0
62500	3.651073	0
62700	3.674309	0
62900	3.697619	0
63100	3.721002	0
63300	3.744460	0
63500	3.767990	0
63700	3.791595	0
63900	3.815273	0
64100	3.839026	0
64300	3.862851	0
64500	3.886751	0
64700	3.910724	0
64900	3.934771	0
65100	3.958891	0
65300	3.983086	0
65500	4.007354	0
65700	4.031695	0
65900	4.056111	0
66100	4.080600	0
66300	4.105163	0
66500	4.129799	0
66700	4.154509	0
66900	4.179293	0
67100	4.204151	0
67300	4.229082	1
67500	4.254087	0
67700	4.279166	0
67900	4.304318	0
68100	4.329544	0
68300	4.354844	0
68500	4.380218	0
68700	4.405665	0
68900	4.431186	0
69100	4.456781	0
69300	4.482449	0
69500	4.508191	0
69700	4.534007	0
69900	4.559897	0
70100	4.585860	0
70300	4.611897	0
70500	4.638007	0
70700	4.664192	0
70900	4.690450	0
71100	4.716781	0
71300	4.743187	0
71500	4.769666	0
71700	4.796219	0
71900	4.822845	0
72100	4.849545	0
72300	4.876319	0
72500	4.903167	0
72700	4.930088	0
72900	4.957084	0
73100	4.984152	0
73300	5.011295	0
73500	5.038511	0
73700	5.065801	0
73900	5.093164	0
74100	5.120602	0
74300	5.148113	0
74500	5.175697	0
74700	5.203356	0
74900	5.231088	1
75100	5.258894	0
75300	5.286773	0
75500	5.314727	0
75700	5.342754	0
75900	5.370854	1
76100	5.399029	0
76300	5.427277	0
76500	5.455598	0
76700	5.483994	1
76900	5.512463	0
77100	5.541006	0
77300	5.569622	0
77500	5.598313	0
77700	5.627077	0
77900	5.655914	0
78100	5.684826	0
78300	5.713811	0
78500	5.742870	0
78700	5.772002	0
78900	5.801208	0
79100	5.830488	0
79300	5.859842	1
79500	5.889269	0
79700	5.918770	0
79900	5.948345	1
80100	5.977994	0
80300	6.007716	0
80500	6.037512	0
80700	6.067381	0
80900	6.097324	0
81100	6.127341	0
81300	6.157432	0
81500	6.187597	0
81700	6.217835	1
81900	6.248146	0
82100	6.278532	0
82300	6.308991	0
82500	6.339524	0
82700	6.370131	0
82900	6.400811	1
83100	6.431565	1
83300	6.462393	0
83500	6.493294	0
83700	6.524269	0
83900	6.555318	1
84100	6.586441	0
84300	6.617637	0
84500	6.648907	0
84700	6.680251	0
84900	6.711668	0
85100	6.743159	0
85300	6.774724	0
85500	6.806362	0
85700	6.838075	1
85900	6.869861	0
86100	6.901720	0
86300	6.933653	0
86500	6.965660	1
86700	6.997741	0
86900	7.029896	0
87100	7.062124	0
87300	7.094426	0
87500	7.126801	0
87700	7.159250	0
87900	7.191773	1
88100	7.224370	0
88300	7.257040	0
88500	7.289784	0
88700	7.322602	0
88900	7.355494	0
89100	7.388459	0
89300	7.421498	0
89500	7.454610	0
89700	7.487797	0
89900	7.521057	0
90100	7.554390	1
90300	7.587798	0
90500	7.621279	0
90700	7.654834	0
90900	7.688462	0
91100	7.722164	0
91300	7.755940	0
91500	7.789790	0
91700	7.823713	0
91900	7.857710	1
92100	7.891781	0
92300	7.925926	0
92500	7.960144	0
92700	7.994436	0
92900	8.028801	0
93100	8.063241	0
93300	8.097754	0
93500	8.132340	0
93700	8.167001	0
93900	8.201735	0
94100	8.236543	0
94300	8.271424	0
94500	8.306379	0
94700	8.341408	0
94900	8.376511	0
95100	8.411687	0
95300	8.446937	0
95500	8.482261	0
95700	8.517658	0
95900	8.553130	0
96100	8.588674	0
96300	8.624293	0
96500	8.659985	0
96700	8.695751	0
96900	8.731591	0
97100	8.767504	0
97300	8.803491	0
97500	8.839552	0
97700	8.875687	0
97900	8.911895	0
98100	8.948177	0
98300	8.984533	0
98500	9.020962	0
98700	9.057465	0
98900	9.094042	0
99100	9.130692	0
99300	9.167416	0
99500	9.204214	0
99700	9.241086	0
99900	9.278031	0
100100	9.315050	0
100300	9.352142	0
100500	9.389309	0
100700	9.426549	0
100900	9.463863	0
101100	9.501250	0
101300	9.538711	0
101500	9.576246	0
101700	9.613855	0
101900	9.651537	0
102100	9.689293	0
102300	9.727123	0
102500	9.765026	0
102700	9.803004	0
102900	9.841054	0
103100	9.879179	0
103300	9.917377	0
103500	9.955649	0
103700	9.993995	0
103900	10.032414	0
104100	10.070907	0
104300	10.109474	0
104500	10.148114	0
104700	10.186829	0
104900	10.225617	0
105100	10.264478	0
105300	10.303413	0
105500	10.342422	0
105700	10.381505	0
105900	10.420662	1
106100	10.459892	0
106300	10.499195	0
106500	10.538573	0
106700	10.578024	0
106900	10.617549	1
107100	10.657148	1
107300	10.696820	0
107500	10.736566	0
107700	10.776386	0
107900	10.816279	0
108100	10.856247	0
108300	10.896287	0
108500	10.936402	0
108700	10.976590	0
108900	11.016852	1
109100	11.057188	0
109300	11.097597	0
109500	11.138081	0
109700	11.178637	1
109900	11.219268	0
110100	11.259972	0
110300	11.300750	0
110500	11.341602	0
110700	11.382527	0
110900	11.423526	0
111100	11.464599	0
111300	11.505745	0
111500	11.546965	0
111700	11.588259	0
111900	11.629627	0
112100	11.671068	1
112300	11.712583	0
112500	11.754172	0
112700	11.795834	0
112900	11.837570	1
113100	11.879380	1
113300	11.921264	0
113500	11.963221	53
113700	12.005252	79854
113900	12.047356	16
114100	12.089535	2
114300	12.131787	3
114500	12.174112	1
114700	12.216512	2
114900	12.258985	3
115100	12.301532	1
115300	12.344152	2
115500	12.386847	1
115700	12.429615	0
115900	12.472456	0
116100	12.515372	1
116300	12.558361	1
116500	12.601423	1
116700	12.644560	1
116900	12.687770	1
117100	12.731054	0
117300	12.774412	0
117500	12.817843	0
117700	12.861348	5
117900	12.904927	3
118100	12.948579	3
118300	12.992305	82865
118500	13.036105	1136
118700	13.079979	4
118900	13.123926	6
119100	13.167947	3
119300	13.212041	5
119500	13.256210	9
119700	13.300452	5
119900	13.344768	3
120100	13.389157	2
120300	13.433620	2
120500	13.478157	1
120700	13.522768	20
120900	13.567452	5
121100	13.612210	2
121300	13.657042	0
121500	13.701947	2
121700	13.746926	0
121900	13.791979	1
122100	13.837106	2
122300	13.882306	0
122500	13.927580	0
122700	13.972927	0
122900	14.018349	7142
123100	14.063844	3
123300	14.109413	0
123500	14.155055	1
123700	14.200771	3
123900	14.246561	0
124100	14.292425	4
124300	14.338362	1
124500	14.384373	1
124700	14.430458	2
124900	14.476616	0
125100	14.522848	0
125300	14.569154	4
125500	14.615534	6
125700	14.661987	0
125900	14.708514	1
126100	14.755114	0
126300	14.801789	0
126500	14.848537	2
126700	14.895358	0
126900	14.942254	0
127100	14.989223	50
127300	15.036266	3447
127500	15.083382	11
127700	15.130573	1
127900	15.177837	1
128100	15.225174	0
128300	15.272586	0
128500	15.320071	0
128700	15.367630	0
128900	15.415262	0
129100	15.462968	0
129300	15.510748	1
129500	15.558602	0
129700	15.606529	0
129900	15.654530	4
130100	15.702605	1
130300	15.750753	0
130500	15.798976	2
130700	15.847271	10
130900	15.895641	3
131100	15.944084	14
131300	15.992601	166671
131500	16.041192	225
131700	16.089856	5
131900	16.138594	2
132100	16.187406	2
132300	16.236292	2
132500	16.285251	2
132700	16.334284	2
132900	16.383390	3
133100	16.432571	3
133300	16.481825	4
133500	16.531152	2
133700	16.580554	2
133900	16.630029	3
134100	16.679578	2
134300	16.729200	1
134500	16.778896	5
134700	16.828666	6
134900	16.878510	1
135100	16.928427	0
135300	16.978419	43137
135500	17.028483	38186
135700	17.078622	10
135900	17.128834	3
136100	17.179120	3
136300	17.229479	5
136500	17.279913	2
136700	17.330420	2
136900	17.381000	1
137100	17.431655	3
137300	17.482383	2
137500	17.533185	1
137700	17.584060	0
137900	17.635010	0
138100	17.686032	19
138300	17.737129	5
138500	17.788299	0
138700	17.839543	1
138900	17.890861	0
139100	17.942253	1
139300	17.993718	335
139500	18.045257	1
139700	18.096869	0
139900	18.148556	0
140100	18.200316	1
140300	18.252149	0
140500	18.304057	1
140700	18.356038	2
140900	18.408093	1
141100	18.460221	1
141300	18.512423	1
141500	18.564699	0
141700	18.617049	1
141900	18.669472	0
142100	18.721969	0
142300	18.774540	1
142500	18.827184	1
142700	18.879903	2
142900	18.932694	0
143100	18.985560	11009
143300	19.038499	152
143500	19.091512	4
143700	19.144599	6
143900	19.197759	4
144100	19.250993	2
144300	19.304301	2
144500	19.357683	4
144700	19.411138	2
144900	19.464667	0
145100	19.518269	1
145300	19.571946	0
145500	19.625696	1
145700	19.679520	0
145900	19.733417	0
146100	19.787388	0
146300	19.841433	1
146500	19.895552	0
146700	19.949744	1
146900	20.004010	0
147100	20.058349	0
147300	20.112763	1
147500	20.167250	0
147700	20.221811	0
147900	20.276445	0
148100	20.331153	0
148300	20.385935	0
148500	20.440791	0
148700	20.495720	1
148900	20.550723	1
149100	20.605800	0
149300	20.660950	0
149500	20.716174	0
149700	20.771472	0
149900	20.826844	0
150100	20.882289	1
150300	20.937808	0
150500	20.993401	0
150700	21.049067	2
150900	21.104807	0
151100	21.160621	0
151300	21.216508	0
151500	21.272469	0
151700	21.328504	0
151900	21.384613	0
152100	21.440795	0
152300	21.497051	1
152500	21.553381	0
152700	21.609784	1
152900	21.666261	1
153100	21.722812	0
153300	21.779437	0
153500	21.836135	0
153700	21.892907	1
153900	21.949753	1
154100	22.006672	2
154300	22.063665	1
154500	22.120732	0
154700	22.177872	2
154900	22.235086	0
155100	22.292374	0
155300	22.349736	0
155500	22.407171	0
155700	22.464680	0
155900	22.522263	1
156100	22.579919	0
156300	22.637649	1
156500	22.695453	1
156700	22.753331	1
156900	22.811282	0
157100	22.869307	1
157300	22.927405	1
157500	22.985578	76
157700	23.043824	4
157900	23.102143	0
158100	23.160537	0
158300	23.219004	0
158500	23.277545	0
158700	23.336160	0
158900	23.394848	0
159100	23.453610	3
159300	23.512445	1
159500	23.571355	0
159700	23.630338	1
159900	23.689395	0
160100	23.748525	1
160300	23.807729	21
160500	23.867007	0
160700	23.926359	92
160900	23.985784	400282
161100	24.045283	774
161300	24.104856	31
161500	24.164502	21
161700	24.224223	19
161900	24.284016	22
162100	24.343884	25
162300	24.403825	21
162500	24.463840	13
162700	24.523929	12
162900	24.584091	14
163100	24.644327	16
163300	24.704637	19
163500	24.765021	18
163700	24.825478	33
163900	24.886009	11
164100	24.946613	42
164300	25.007292	602962
164500	25.068044	580
164700	25.128869	73
164900	25.189769	25
165100	25.250742	22
165300	25.311789	17
165500	25.372909	23
165700	25.434103	12
165900	25.495371	18
166100	25.556713	12
166300	25.618128	7
166500	25.679617	7
166700	25.741180	6
166900	25.802817	14
167100	25.864527	6
167300	25.926311	12
167500	25.988168	216420
167700	26.050100	7557
167900	26.112105	1032
168100	26.174183	381
168300	26.236336	210
168500	26.298562	107
168700	26.360862	79
168900	26.423235	36
169100	26.485682	33
169300	26.548203	29
169500	26.610798	23
169700	26.673466	15
169900	26.736208	12
170100	26.799024	15
170300	26.861914	11
170500	26.924877	11
170700	26.987914	3394
170900	27.051024	1638
171100	27.114209	19
171300	27.177467	19
171500	27.240798	8
171700	27.304204	2
171900	27.367683	4
172100	27.431236	7
172300	27.494862	5
172500	27.558562	4
172700	27.622336	4
172900	27.686184	6
173100	27.750105	6
173300	27.814100	4
173500	27.878169	6
173700	27.942311	11
173900	28.006527	163
174100	28.070817	2
174300	28.135181	3
174500	28.199618	5
174700	28.264129	0
174900	28.328714	3
175100	28.393372	4
175300	28.458104	5
175500	28.522910	0
175700	28.587790	0
175900	28.652743	4
176100	28.717770	2
176300	28.782870	0
176500	28.848045	3
176700	28.913293	0
176900	28.978614	468
177100	29.044010	18
177300	29.109479	2
177500	29.175022	1
177700	29.240638	2
177900	29.306329	1
178100	29.372093	1
178300	29.437930	1
178500	29.503842	1
178700	29.569827	1
178900	29.635885	0
179100	29.702018	1
179300	29.768224	2
179500	29.834504	2
179700	29.900858	2
179900	29.967285	54
180100	30.033786	18
180300	30.100361	2
180500	30.167009	0
180700	30.233731	3
180900	30.300527	2
181100	30.367397	0
181300	30.434340	3
181500	30.501357	2
181700	30.568447	2
181900	30.635612	2
182100	30.702850	1
182300	30.770162	4
182500	30.837547	0
182700	30.905006	2
182900	30.972539	59
183100	31.040146	900
183300	31.107826	2
183500	31.175580	0
183700	31.243408	1
183900	31.311309	3
184100	31.379284	0
184300	31.447333	0
184500	31.515456	2
184700	31.583652	1
184900	31.651922	4
185100	31.720265	3
185300	31.788683	1
185500	31.857174	0
185700	31.925739	4
185900	31.994377	3728
186100	32.063089	1
186300	32.131875	1
186500	32.200735	0
186700	32.269668	1
186900	32.338675	1
187100	32.407756	0
187300	32.476910	1
187500	32.546138	1
187700	32.615440	0
187900	32.684815	1
188100	32.754265	1
188300	32.823787	1
188500	32.893384	0
188700	32.963054	1101
188900	33.032798	149
189100	33.102616	4
189300	33.172508	2
189500	33.242473	0
189700	33.312512	2
189900	33.382624	1
190100	33.452810	0
190300	33.523070	0
190500	33.593404	0
190700	33.663812	0
190900	33.734293	1
191100	33.804847	2
191300	33.875476	0
191500	33.946178	70
191700	34.016954	32
191900	34.087804	1
192100	34.158727	3
192300	34.229724	1
192500	34.300795	2
192700	34.371939	1
192900	34.443157	2
193100	34.514449	0
193300	34.585815	0
193500	34.657254	1
193700	34.728767	23
193900	34.800354	4
194100	34.872014	11
194300	34.943748	644944
194500	35.015556	32115
194700	35.087437	821
194900	35.159392	270
195100	35.231421	106
195300	35.303524	74
195500	35.375700	43
195700	35.447950	17
195900	35.520274	16
196100	35.592671	17
196300	35.665142	11
196500	35.737687	14
196700	35.810306	10
196900	35.882998	6
197100	35.955764	1185
197300	36.028604	76051
197500	36.101517	18
197700	36.174504	6
197900	36.247565	12
198100	36.320699	10
198300	36.393907	5
198500	36.467189	0
198700	36.540545	4
198900	36.613974	3
199100	36.687477	9
199300	36.761054	11
199500	36.834704	3
199700	36.908428	43
199900	36.982226	234272
200100	37.056098	971
200300	37.130043	161
200500	37.204062	59
200700	37.278155	34
200900	37.352321	16
201100	37.426561	11
201300	37.500875	20
201500	37.575262	5
201700	37.649723	10
201900	37.724258	4
202100	37.798867	3
202300	37.873549	3
202500	37.948305	39
202700	38.023135	8288
202900	38.098038	8
203100	38.173015	4
203300	38.248066	3
203500	38.323191	2
203700	38.398389	1
203900	38.473661	2
204100	38.549006	11
204300	38.624426	3
204500	38.699919	2
204700	38.775485	1
204900	38.851126	3
205100	38.926840	2
205300	39.002628	4703
205500	39.078489	56
205700	39.154425	9
205900	39.230434	2
206100	39.306516	4
206300	39.382673	1
206500	39.458903	3
206700	39.535207	1
206900	39.611584	15
207100	39.688035	2
207300	39.764560	5
207500	39.841159	0
