# Binning: 200 channels
# Deadtime Correction: on
Channel	m/z	Intensity
100	0.000247	0
300	0.000474	24
500	0.000775	0
700	0.001150	0
900	0.001599	0
1100	0.002121	0
1300	0.002718	6
1500	0.003387	4
1700	0.004131	3
1900	0.004948	0
2100	0.005839	0
2300	0.006804	0
2500	0.007842	0
2700	0.008954	0
2900	0.010140	0
3100	0.011400	0
3300	0.012733	0
3500	0.014140	0
3700	0.015621	0
3900	0.017175	1
4100	0.018804	0
4300	0.020506	0
4500	0.022281	1
4700	0.024130	0
4900	0.026054	0
5100	0.028050	0
5300	0.030121	0
5500	0.032265	0
5700	0.034483	0
5900	0.036775	0
6100	0.039140	0
6300	0.041579	0
6500	0.044092	0
6700	0.046678	0
6900	0.049338	0
7100	0.052072	0
7300	0.054880	0
7500	0.057761	0
7700	0.060717	0
7900	0.063745	0
8100	0.066848	0
8300	0.070024	0
8500	0.073274	1
8700	0.076598	0
8900	0.079995	0
9100	0.083466	2
9300	0.087011	0
9500	0.090630	0
9700	0.094322	0
9900	0.098088	0
10100	0.101928	0
10300	0.105841	0
10500	0.109828	0
10700	0.113889	0
10900	0.118024	0
11100	0.122232	0
11300	0.126514	0
11500	0.130870	0
11700	0.135299	0
11900	0.139803	0
12100	0.144380	0
12300	0.149030	0
12500	0.153754	0
12700	0.158553	0
12900	0.163424	0
13100	0.168370	0
13300	0.173389	1
13500	0.178482	0
13700	0.183649	0
13900	0.188889	0
14100	0.194203	0
14300	0.199591	0
14500	0.205052	0
14700	0.210588	0
14900	0.216197	0
15100	0.221879	1
15300	0.227636	0
15500	0.233466	0
15700	0.239370	0
15900	0.245347	0
16100	0.251398	0
16300	0.257523	0
16500	0.263722	1
16700	0.269994	0
16900	0.276341	0
17100	0.282760	0
17300	0.289254	0
17500	0.295821	0
17700	0.302462	0
17900	0.309177	0
18100	0.315966	0
18300	0.322828	0
18500	0.329764	0
18700	0.336773	0
18900	0.343856	0
19100	0.351014	0
19300	0.358244	0
19500	0.365549	0
19700	0.372927	0
19900	0.380379	0
20100	0.387904	0
20300	0.395504	0
20500	0.403177	0
20700	0.410924	0
20900	0.418744	0
21100	0.426638	0
21300	0.434606	0
21500	0.442648	0
21700	0.450763	0
21900	0.458952	0
22100	0.467215	0
22300	0.475552	0
22500	0.483962	0
22700	0.492446	0
22900	0.501004	0
23100	0.509635	0
23300	0.518340	0
23500	0.527119	0
23700	0.535972	0
23900	0.544898	0
24100	0.553898	0
24300	0.562972	0
24500	0.572119	0
24700	0.581340	0
24900	0.590635	0
25100	0.600004	0
25300	0.609446	0
25500	0.618962	0
25700	0.628552	0
25900	0.638215	0
26100	0.647952	0
26300	0.657763	0
26500	0.667648	0
26700	0.677606	0
26900	0.687638	0
27100	0.697744	0
27300	0.707923	1
27500	0.718177	0
27700	0.728503	0
27900	0.738904	0
28100	0.749378	0
28300	0.759927	0
28500	0.770548	0
28700	0.781244	0
28900	0.792013	0
29100	0.802856	0
29300	0.813773	0
29500	0.824763	0
29700	0.835827	0
29900	0.846965	0
30100	0.858177	0
30300	0.869462	0
30500	0.880821	0
30700	0.892253	0
30900	0.903760	0
31100	0.915340	1
31300	0.926994	0
31500	0.938721	0
31700	0.950523	0
31900	0.962398	1
32100	0.974346	5
32300	0.986369	24
32500	0.998465	10
32700	1.010635	189035
32900	1.022878	30
33100	1.035196	5
33300	1.047587	9
33500	1.060051	2
33700	1.072590	1
33900	1.085202	6
34100	1.097888	1
34300	1.110648	3
34500	1.123481	1
34700	1.136388	0
34900	1.149369	2
35100	1.162423	0
35300	1.175552	0
35500	1.188753	0
35700	1.202029	0
35900	1.215378	1
36100	1.228802	0
36300	1.242298	0
36500	1.255869	0
36700	1.269513	0
36900	1.283231	0
37100	1.297023	0
37300	1.310888	0
37500	1.324827	0
37700	1.338840	0
37900	1.352927	0
38100	1.367087	0
38300	1.381321	0
38500	1.395629	0
38700	1.410010	0
38900	1.424465	0
39100	1.438994	0
39300	1.453596	0
39500	1.468273	0
39700	1.483023	0
39900	1.497847	0
40100	1.512744	0
40300	1.527715	0
40500	1.542760	0
40700	1.557879	0
40900	1.573071	0
41100	1.588337	0
41300	1.603677	0
41500	1.619090	0
41700	1.634577	0
41900	1.650138	0
42100	1.665773	0
42300	1.681481	0
42500	1.697263	0
42700	1.713119	0
42900	1.729049	0
43100	1.745052	0
43300	1.761129	1
43500	1.777279	0
43700	1.793504	0
43900	1.809802	0
44100	1.826174	0
44300	1.842619	0
44500	1.859138	0
44700	1.875731	0
44900	1.892398	0
45100	1.909138	0
45300	1.925953	0
45500	1.942840	0
45700	1.959802	0
45900	1.976837	0
46100	1.993946	0
46300	2.011129	11
46500	2.028385	0
46700	2.045715	0
46900	2.063119	0
47100	2.080597	0
47300	2.098148	0
47500	2.115773	0
47700	2.133472	0
47900	2.151244	0
48100	2.169091	0
48300	2.187010	0
48500	2.205004	0
48700	2.223071	0
48900	2.241212	0
49100	2.259427	0
49300	2.277716	0
49500	2.296078	0
49700	2.314514	0
49900	2.333023	0
50100	2.351607	0
50300	2.370264	0
50500	2.388995	0
50700	2.407799	0
50900	2.426677	0
51100	2.445629	0
51300	2.464655	0
51500	2.483754	0
51700	2.502927	0
51900	2.522174	0
52100	2.541495	0
52300	2.560889	0
52500	2.580357	0
52700	2.599899	0
52900	2.619514	0
53100	2.639203	0
53300	2.658966	0
53500	2.678803	0
53700	2.698713	1
53900	2.718697	0
54100	2.738755	0
54300	2.758886	0
54500	2.779091	0
54700	2.799370	0
54900	2.819723	0
55100	2.840149	0
55300	2.860649	0
55500	2.881223	0
55700	2.901870	0
55900	2.922591	0
56100	2.943386	0
56300	2.964255	0
56500	2.985197	0
56700	3.006213	0
56900	3.027303	0
57100	3.048467	0
57300	3.069704	0
57500	3.091015	1
57700	3.112399	0
57900	3.133858	0
58100	3.155390	0
58300	3.176996	0
58500	3.198675	0
58700	3.220428	0
58900	3.242255	0
59100	3.264156	0
59300	3.286130	0
59500	3.308178	0
59700	3.330300	0
59900	3.352496	0
60100	3.374765	0
60300	3.397108	0
60500	3.419525	0
60700	3.442015	0
60900	3.464579	0
61100	3.487217	0
61300	3.509929	0
61500	3.532714	0
61700	3.555573	0
61900	3.578506	0
62100	3.601512	0
62300	3.624592	0
62500	3.647746	0
62700	3.670974	0
62900	3.694275	0
63100	3.717650	0
63300	3.741099	0
63500	3.764621	0
63700	3.788218	0
63900	3.811887	0
64100	3.835631	0
64300	3.859448	0
64500	3.883339	0
64700	3.907304	0
64900	3.931343	0
65100	3.955455	0
65300	3.979641	0
65500	4.003901	0
65700	4.028234	0
65900	4.052641	0
66100	4.077122	0
66300	4.101676	0
66500	4.126305	0
66700	4.151006	0
66900	4.175782	0
67100	4.200632	0
67300	4.225555	0
67500	4.250552	0
67700	4.275622	0
67900	4.300766	0
68100	4.325984	0
68300	4.351276	0
68500	4.376641	0
68700	4.402081	0
68900	4.427593	0
69100	4.453180	0
69300	4.478840	0
69500	4.504574	0
69700	4.530382	0
69900	4.556263	0
70100	4.582219	0
70300	4.608248	0
70500	4.634350	0
70700	4.660526	0
70900	4.686777	0
71100	4.713100	0
71300	4.739498	0
71500	4.765969	0
71700	4.792514	0
71900	4.819132	0
72100	4.845825	0
72300	4.872591	0
72500	4.899431	0
72700	4.926344	0
72900	4.953331	0
73100	4.980392	0
73300	5.007527	0
73500	5.034735	0
73700	5.062017	0
73900	5.089373	0
74100	5.116803	0
74300	5.144306	0
74500	5.171883	0
74700	5.199534	0
74900	5.227258	0
75100	5.255056	0
75300	5.282928	0
75500	5.310874	0
75700	5.338893	0
75900	5.366986	0
76100	5.395153	0
76300	5.423393	0
76500	5.451707	0
76700	5.480095	0
76900	5.508557	0
77100	5.537092	0
77300	5.565701	0
77500	5.594384	0
77700	5.623140	0
77900	5.651970	0
78100	5.680874	0
78300	5.709852	0
78500	5.738903	0
78700	5.768028	0
78900	5.797227	0
79100	5.826500	0
79300	5.855846	0
79500	5.885266	0
79700	5.914759	0
79900	5.944327	0
80100	5.973968	0
80300	6.003683	0
80500	6.033471	0
80700	6.063333	0
80900	6.093269	0
81100	6.123279	0
81300	6.153362	0
81500	6.183519	0
81700	6.213750	0
81900	6.244055	0
82100	6.274433	0
82300	6.304885	0
82500	6.335411	0
82700	6.366010	1
82900	6.396683	0
83100	6.427430	0
83300	6.458251	0
83500	6.489145	0
83700	6.520113	0
83900	6.551155	0
84100	6.582270	0
84300	6.613459	0
84500	6.644722	0
84700	6.676059	0
84900	6.707469	0
85100	6.738953	0
85300	6.770511	0
85500	6.802142	0
85700	6.833847	0
85900	6.865626	0
86100	6.897479	0
86300	6.929405	0
86500	6.961405	0
86700	6.993479	0
86900	7.025627	0
87100	7.057848	1
87300	7.090143	0
87500	7.122511	0
87700	7.154954	1
87900	7.187470	0
88100	7.220060	0
88300	7.252723	0
88500	7.285460	0
88700	7.318271	0
88900	7.351156	0
89100	7.384114	0
89300	7.417147	0
89500	7.450252	0
89700	7.483432	0
89900	7.516685	0
90100	7.550012	0
90300	7.583413	0
90500	7.616887	0
90700	7.650435	0
90900	7.684057	0
91100	7.717753	0
91300	7.751522	0
91500	7.785365	0
91700	7.819282	0
91900	7.853272	0
92100	7.887336	0
92300	7.921474	0
92500	7.955686	0
92700	7.989971	0
92900	8.024330	0
93100	8.058763	0
93300	8.093270	0
93500	8.127850	0
93700	8.162504	0
93900	8.197231	0
94100	8.232033	0
94300	8.266908	0
94500	8.301856	0
94700	8.336879	0
94900	8.371975	0
95100	8.407145	0
95300	8.442389	0
95500	8.477706	0
95700	8.513097	0
95900	8.548562	0
96100	8.584101	0
96300	8.619713	0
96500	8.655399	0
96700	8.691158	0
96900	8.726992	0
97100	8.762899	0
97300	8.798880	0
97500	8.834934	0
97700	8.871063	0
97900	8.907265	0
98100	8.943540	0
98300	8.979890	0
98500	9.016313	0
98700	9.052810	0
98900	9.089380	0
99100	9.126025	0
99300	9.162743	0
99500	9.199534	0
99700	9.236400	0
99900	9.273339	0
100100	9.310352	0
100300	9.347439	0
100500	9.384599	0
100700	9.421833	0
100900	9.459141	0
101100	9.496522	0
101300	9.533977	0
101500	9.571506	0
101700	9.609109	0
101900	9.646785	0
102100	9.684535	1
102300	9.722359	0
102500	9.760257	0
102700	9.798228	0
102900	9.836273	0
103100	9.874392	0
103300	9.912584	0
103500	9.950850	0
103700	9.989190	0
103900	10.027603	0
104100	10.066091	0
104300	10.104652	0
104500	10.143286	0
104700	10.181995	0
104900	10.220777	0
105100	10.259633	0
105300	10.298562	0
105500	10.337566	0
105700	10.376643	0
105900	10.415793	0
106100	10.455018	0
106300	10.494316	0
106500	10.533688	0
106700	10.573133	0
106900	10.612653	0
107100	10.652246	0
107300	10.691912	0
107500	10.731653	0
107700	10.771467	1
107900	10.811355	0
108100	10.851317	0
108300	10.891352	0
108500	10.931461	0
108700	10.971644	0
108900	11.011900	1
109100	11.052230	0
109300	11.092634	0
109500	11.133112	0
109700	11.173663	0
109900	11.214288	0
110100	11.254987	0
110300	11.295760	0
110500	11.336606	0
110700	11.377526	0
110900	11.418520	0
111100	11.459587	0
111300	11.500728	0
111500	11.541943	0
111700	11.583231	1
111900	11.624594	0
112100	11.666030	0
112300	11.707539	0
112500	11.749123	0
112700	11.790780	0
112900	11.832511	0
113100	11.874315	0
113300	11.916194	1
113500	11.958146	25
113700	12.000171	31731
113900	12.042271	41
114100	12.084444	1
114300	12.126691	3
114500	12.169012	0
114700	12.211406	0
114900	12.253874	0
115100	12.296416	0
115300	12.339031	0
115500	12.381720	2
115700	12.424483	1
115900	12.467320	0
116100	12.510230	0
116300	12.553214	0
116500	12.596272	0
116700	12.639404	2
116900	12.682609	2
117100	12.725888	0
117300	12.769240	1
117500	12.812667	1
117700	12.856167	2
117900	12.899741	1
118100	12.943388	4
118300	12.987109	19744
118500	13.030904	11124
118700	13.074773	3
118900	13.118715	2
119100	13.162732	1
119300	13.206821	0
119500	13.250985	0
119700	13.295222	2
119900	13.339533	0
120100	13.383918	0
120300	13.428376	0
120500	13.472908	1
120700	13.517514	2
120900	13.562194	8
121100	13.606947	0
121300	13.651774	1
121500	13.696675	0
121700	13.741649	0
121900	13.786698	0
122100	13.831819	0
122300	13.877015	0
122500	13.922284	2
122700	13.967627	0
122900	14.013044	2524
123100	14.058535	4
123300	14.104099	0
123500	14.149737	1
123700	14.195448	0
123900	14.241234	0
124100	14.287093	1
124300	14.333026	0
124500	14.379032	0
124700	14.425112	0
124900	14.471266	1
125100	14.517494	0
125300	14.563795	0
125500	14.610170	2
125700	14.656619	0
125900	14.703142	0
126100	14.749738	1
126300	14.796408	1
126500	14.843152	0
126700	14.889969	0
126900	14.936860	0
127100	14.983825	1
127300	15.030864	1673
127500	15.077976	5
127700	15.125162	1
127900	15.172422	0
128100	15.219755	1
128300	15.267162	0
128500	15.314643	0
128700	15.362198	0
128900	15.409826	0
129100	15.457528	0
129300	15.505304	0
129500	15.553153	0
129700	15.601076	0
129900	15.649073	1
130100	15.697144	0
130300	15.745288	0
130500	15.793506	1
130700	15.841798	0
130900	15.890164	2
131100	15.938603	7
131300	15.987116	66179
131500	16.035702	174
131700	16.084363	3
131900	16.133097	1
132100	16.181905	2
132300	16.230786	2
132500	16.279741	1
132700	16.328770	0
132900	16.377873	0
133100	16.427049	0
133300	16.476299	0
133500	16.525623	0
133700	16.575021	3
133900	16.624492	2
134100	16.674037	0
134300	16.723656	0
134500	16.773348	0
134700	16.823114	0
134900	16.872954	0
135100	16.922868	2
135300	16.972855	4
135500	17.022916	29050
135700	17.073051	1
135900	17.123259	0
136100	17.173541	3
136300	17.223897	3
136500	17.274327	1
136700	17.324830	2
136900	17.375407	2
137100	17.426058	2
137300	17.476782	1
137500	17.527581	0
137700	17.578452	0
137900	17.629398	1
138100	17.680417	7
138300	17.731510	1
138500	17.782677	0
138700	17.833918	0
138900	17.885232	0
139100	17.936620	0
139300	17.988082	142
139500	18.039617	2
139700	18.091226	0
139900	18.142909	0
140100	18.194665	0
140300	18.246496	0
140500	18.298400	1
140700	18.350377	0
140900	18.402429	2
141100	18.454554	0
141300	18.506753	0
141500	18.559025	2
141700	18.611371	0
141900	18.663791	0
142100	18.716285	0
142300	18.768853	1
142500	18.821494	0
142700	18.874209	0
142900	18.926997	3
143100	18.979859	3982
143300	19.032795	174
143500	19.085805	3
143700	19.138889	1
143900	19.192046	0
144100	19.245277	0
144300	19.298581	0
144500	19.351960	0
144700	19.405412	0
144900	19.458937	0
145100	19.512537	0
145300	19.566210	0
145500	19.619957	0
145700	19.673778	0
145900	19.727672	0
146100	19.781640	0
146300	19.835682	0
146500	19.889797	0
146700	19.943987	0
146900	19.998249	0
147100	20.052586	0
147300	20.106997	0
147500	20.161481	0
147700	20.216038	0
147900	20.270670	0
148100	20.325375	0
148300	20.380154	0
148500	20.435007	0
148700	20.489933	0
148900	20.544933	0
149100	20.600007	0
149300	20.655155	0
149500	20.710376	0
149700	20.765671	0
149900	20.821040	0
150100	20.876482	0
150300	20.931998	0
150500	20.987588	0
150700	21.043252	0
150900	21.098989	0
151100	21.154800	0
151300	21.210685	0
151500	21.266643	0
151700	21.322676	0
151900	21.378781	0
152100	21.434961	0
152300	21.491214	0
152500	21.547541	0
152700	21.603942	0
152900	21.660417	0
153100	21.716965	0
153300	21.773587	1
153500	21.830282	0
153700	21.887052	0
153900	21.943895	0
154100	22.000812	0
154300	22.057802	1
154500	22.114866	0
154700	22.172004	1
154900	22.229216	0
155100	22.286501	0
155300	22.343860	0
155500	22.401293	0
155700	22.458800	0
155900	22.516380	0
156100	22.574034	0
156300	22.631762	0
156500	22.689563	0
156700	22.747438	0
156900	22.805387	0
157100	22.863410	0
157300	22.921506	0
157500	22.979676	37
157700	23.037920	1
157900	23.096237	0
158100	23.154628	0
158300	23.213093	0
158500	23.271632	0
158700	23.330244	0
158900	23.388930	0
159100	23.447690	0
159300	23.506523	0
159500	23.565431	0
159700	23.624411	0
159900	23.683466	0
160100	23.742594	0
160300	23.801796	0
160500	23.861072	0
160700	23.920422	30
160900	23.979845	130668
161100	24.039342	990
161300	24.098913	10
161500	24.158557	6
161700	24.218275	7
161900	24.278067	9
162100	24.337932	6
162300	24.397872	6
162500	24.457885	8
162700	24.517971	6
162900	24.578132	3
163100	24.638366	9
163300	24.698674	9
163500	24.759055	5
163700	24.819510	4
163900	24.880039	17
164100	24.940642	17
164300	25.001318	182128
164500	25.062069	427
164700	25.122892	24
164900	25.183790	12
165100	25.244761	6
165300	25.305806	7
165500	25.366925	3
165700	25.428118	3
165900	25.489384	6
166100	25.550724	5
166300	25.612137	1
166500	25.673624	3
166700	25.735186	5
166900	25.796820	2
167100	25.858529	2
167300	25.920311	8
167500	25.982167	64931
167700	26.044097	4999
167900	26.106100	381
168100	26.168177	148
168300	26.230328	64
168500	26.292552	40
168700	26.354850	20
168900	26.417222	25
169100	26.479668	21
169300	26.542187	13
169500	26.604780	12
169700	26.667447	10
169900	26.730188	9
170100	26.793002	6
170300	26.855890	3
170500	26.918852	8
170700	26.981887	974
170900	27.044996	656
171100	27.108179	16
171300	27.171436	5
171500	27.234766	5
171700	27.298170	3
171900	27.361648	2
172100	27.425199	1
172300	27.488824	2
172500	27.552523	0
172700	27.616296	1
172900	27.680142	0
173100	27.744062	0
173300	27.808056	1
173500	27.872123	3
173700	27.936264	2
173900	28.000479	68
174100	28.064768	3
174300	28.129130	0
174500	28.193566	0
174700	28.258076	1
174900	28.322659	3
175100	28.387317	2
175300	28.452048	1
175500	28.516852	0
175700	28.581731	1
175900	28.646683	0
176100	28.711708	0
176300	28.776808	1
176500	28.841981	1
176700	28.907228	1
176900	28.972549	125
177100	29.037943	67
177300	29.103411	2
177500	29.168953	1
177700	29.234569	0
177900	29.300258	0
178100	29.366021	0
178300	29.431858	1
178500	29.497768	1
178700	29.563752	0
178900	29.629810	1
179100	29.695942	0
179300	29.762147	0
179500	29.828426	0
179700	29.894779	0
179900	29.961205	2
180100	30.027705	19
180300	30.094279	0
180500	30.160927	0
180700	30.227648	0
180900	30.294443	0
181100	30.361312	1
181300	30.428254	0
181500	30.495270	1
181700	30.562360	0
181900	30.629524	0
182100	30.696761	0
182300	30.764072	1
182500	30.831457	0
182700	30.898915	0
182900	30.966448	16
183100	31.034054	360
183300	31.101733	0
183500	31.169487	0
183700	31.237314	0
183900	31.305215	1
184100	31.373189	1
184300	31.441237	0
184500	31.509359	0
184700	31.577555	0
184900	31.645824	0
185100	31.714167	1
185300	31.782584	1
185500	31.851075	0
185700	31.919639	1
185900	31.988277	1419
186100	32.056989	2
186300	32.125774	0
186500	32.194633	0
186700	32.263566	0
186900	32.332573	0
187100	32.401653	0
187300	32.470807	1
187500	32.540035	0
187700	32.609336	0
187900	32.678711	1
188100	32.748160	0
188300	32.817683	0
188500	32.887279	0
188700	32.956949	273
188900	33.026693	131
189100	33.096510	2
189300	33.166402	1
189500	33.236367	0
189700	33.306405	0
189900	33.376518	1
190100	33.446704	1
190300	33.516963	0
190500	33.587297	0
190700	33.657704	0
190900	33.728185	0
191100	33.798740	0
191300	33.869368	0
191500	33.940070	20
191700	34.010846	21
191900	34.081695	0
192100	34.152619	1
192300	34.223616	0
192500	34.294686	1
192700	34.365831	1
192900	34.437049	0
193100	34.508341	0
193300	34.579706	0
193500	34.651146	0
193700	34.722659	0
193900	34.794245	0
194100	34.865906	26
194300	34.937640	193134
194500	35.009448	42180
194700	35.081329	363
194900	35.153285	106
195100	35.225314	41
195300	35.297416	17
195500	35.369593	11
195700	35.441843	16
195900	35.514167	5
196100	35.586564	4
196300	35.659036	5
196500	35.731581	6
196700	35.804200	2
196900	35.876892	1
197100	35.949658	46
197300	36.022498	22115
197500	36.095412	7
197700	36.168399	1
197900	36.241460	2
198100	36.314595	2
198300	36.387804	2
198500	36.461086	1
198700	36.534442	5
198900	36.607871	0
199100	36.681375	1
199300	36.754952	0
199500	36.828603	7
199700	36.902327	7
199900	36.976125	80363
200100	37.049997	884
200300	37.123943	53
200500	37.197963	18
200700	37.272056	12
200900	37.346222	8
201100	37.420463	2
201300	37.494777	8
201500	37.569165	3
201700	37.643627	1
201900	37.718162	0
202100	37.792772	0
202300	37.867454	6
202500	37.942211	9
202700	38.017041	2435
202900	38.091945	3
203100	38.166923	0
203300	38.241975	1
203500	38.317100	0
203700	38.392299	0
203900	38.467571	1
204100	38.542918	1
204300	38.618338	3
204500	38.693831	0
204700	38.769399	0
204900	38.845040	0
205100	38.920755	0
205300	38.996544	1428
205500	39.072406	40
205700	39.148342	2
205900	39.224352	0
206100	39.300436	2
206300	39.376593	0
206500	39.452824	0
206700	39.529128	0
206900	39.605507	6
207100	39.681959	0
207300	39.758485	1
207500	39.835084	1
207700	39.911757	0
207900	39.988504	5125
208100	40.065325	63
208300	40.142220	0
