# Binning: 200 channels
# Deadtime Correction: on
Channel	m/z	Intensity
100	0.000334	0
300	0.000592	11
500	0.000924	0
700	0.001330	0
900	0.001809	0
1100	0.002361	0
1300	0.002987	1
1500	0.003687	0
1700	0.004460	1
1900	0.005307	0
2100	0.006227	0
2300	0.007220	0
2500	0.008288	0
2700	0.009428	0
2900	0.010643	0
3100	0.011931	0
3300	0.013292	0
3500	0.014727	0
3700	0.016235	1
3900	0.017817	0
4100	0.019473	0
4300	0.021202	0
4500	0.023004	0
4700	0.024880	0
4900	0.026830	0
5100	0.028853	0
5300	0.030949	0
5500	0.033120	0
5700	0.035363	0
5900	0.037681	0
6100	0.040071	0
6300	0.042536	0
6500	0.045073	0
6700	0.047685	0
6900	0.050370	0
7100	0.053128	0
7300	0.055960	0
7500	0.058865	0
7700	0.061844	0
7900	0.064897	0
8100	0.068023	0
8300	0.071223	0
8500	0.074496	0
8700	0.077842	0
8900	0.081263	0
9100	0.084756	0
9300	0.088324	0
9500	0.091964	0
9700	0.095679	0
9900	0.099466	0
10100	0.103328	0
10300	0.107263	0
10500	0.111271	0
10700	0.115353	0
10900	0.119509	0
11100	0.123738	0
11300	0.128040	0
11500	0.132416	0
11700	0.136866	0
11900	0.141389	0
12100	0.145986	0
12300	0.150656	0
12500	0.155400	0
12700	0.160217	0
12900	0.165108	0
13100	0.170072	0
13300	0.175110	0
13500	0.180221	0
13700	0.185406	0
13900	0.190664	0
14100	0.195996	0
14300	0.201402	0
14500	0.206881	0
14700	0.212433	0
14900	0.218060	0
15100	0.223759	0
15300	0.229532	0
15500	0.235379	0
15700	0.241299	0
15900	0.247293	0
16100	0.253360	0
16300	0.259501	0
16500	0.265715	0
16700	0.272003	0
16900	0.278365	0
17100	0.284799	0
17300	0.291308	0
17500	0.297890	0
17700	0.304545	0
17900	0.311274	0
18100	0.318077	0
18300	0.324953	0
18500	0.331903	0
18700	0.338926	0
18900	0.346023	0
19100	0.353193	0
19300	0.360437	0
19500	0.367754	0
19700	0.375145	0
19900	0.382609	0
20100	0.390147	0
20300	0.397758	0
20500	0.405443	0
20700	0.413202	0
20900	0.421034	0
21100	0.428939	0
21300	0.436918	0
21500	0.444971	0
21700	0.453097	0
21900	0.461296	1
22100	0.469570	0
22300	0.477916	0
22500	0.486337	0
22700	0.494830	0
22900	0.503398	0
23100	0.512038	0
23300	0.520753	0
23500	0.529541	0
23700	0.538402	0
23900	0.547337	0
24100	0.556345	0
24300	0.565427	0
24500	0.574583	0
24700	0.583812	0
24900	0.593115	0
25100	0.602491	0
25300	0.611940	0
25500	0.621464	0
25700	0.631060	0
25900	0.640730	0
26100	0.650474	0
26300	0.660292	0
26500	0.670182	0
26700	0.680147	0
26900	0.690185	0
27100	0.700296	0
27300	0.710481	0
27500	0.720739	0
27700	0.731071	0
27900	0.741477	0
28100	0.751956	0
28300	0.762509	0
28500	0.773135	0
28700	0.783834	0
28900	0.794608	0
29100	0.805454	0
29300	0.816375	0
29500	0.827368	0
29700	0.838436	0
29900	0.849576	0
30100	0.860791	0
30300	0.872079	0
30500	0.883440	0
30700	0.894875	0
30900	0.906384	0
31100	0.917966	22
31300	0.929621	2
31500	0.941350	1
31700	0.953153	0
31900	0.965029	2
32100	0.976979	4
32300	0.989002	17
32500	1.001099	861
32700	1.013269	120014
32900	1.025513	38
33100	1.037830	10
33300	1.050221	4
33500	1.062685	2
33700	1.075223	2
33900	1.087835	1
34100	1.100520	4
34300	1.113278	2
34500	1.126110	0
34700	1.139016	1
34900	1.151995	0
35100	1.165047	0
35300	1.178173	0
35500	1.191373	0
35700	1.204646	0
35900	1.217993	0
36100	1.231413	0
36300	1.244907	0
36500	1.258474	0
36700	1.272115	0
36900	1.285830	1
37100	1.299618	0
37300	1.313479	0
37500	1.327414	1
37700	1.341423	1
37900	1.355505	0
38100	1.369660	0
38300	1.383889	0
38500	1.398192	0
38700	1.412568	0
38900	1.427018	0
39100	1.441541	0
39300	1.456138	0
39500	1.470808	2
39700	1.485552	0
39900	1.500369	0
40100	1.515260	0
40300	1.530224	0
40500	1.545262	0
40700	1.560374	0
40900	1.575559	0
41100	1.590817	0
41300	1.606149	0
41500	1.621555	0
41700	1.637034	0
41900	1.652587	0
42100	1.668213	0
42300	1.683913	0
42500	1.699686	0
42700	1.715533	0
42900	1.731453	0
43100	1.747447	0
43300	1.763514	0
43500	1.779655	0
43700	1.795869	0
43900	1.812157	0
44100	1.828519	0
44300	1.844954	0
44500	1.861462	0
44700	1.878044	0
44900	1.894700	0
45100	1.911429	0
45300	1.928232	0
45500	1.945108	0
45700	1.962058	0
45900	1.979081	0
46100	1.996178	0
46300	2.013348	13
46500	2.030592	0
46700	2.047909	0
46900	2.065300	0
47100	2.082764	0
47300	2.100302	0
47500	2.117914	0
47700	2.135599	0
47900	2.153357	0
48100	2.171189	0
48300	2.189095	0
48500	2.207074	0
48700	2.225127	0
48900	2.243253	0
49100	2.261453	0
49300	2.279726	0
49500	2.298073	0
49700	2.316493	0
49900	2.334987	0
50100	2.353554	0
50300	2.372195	0
50500	2.390910	0
50700	2.409698	0
50900	2.428559	0
51100	2.447494	1
51300	2.466503	0
51500	2.485585	0
51700	2.504740	0
51900	2.523970	0
52100	2.543272	0
52300	2.562648	0
52500	2.582098	0
52700	2.601621	0
52900	2.621218	0
53100	2.640889	0
53300	2.660632	0
53500	2.680450	0
53700	2.700341	0
53900	2.720305	0
54100	2.740343	1
54300	2.760455	0
54500	2.780640	0
54700	2.800898	0
54900	2.821230	0
55100	2.841636	0
55300	2.862115	0
55500	2.882668	0
55700	2.903294	0
55900	2.923994	1
56100	2.944767	0
56300	2.965614	0
56500	2.986534	0
56700	3.007528	0
56900	3.028595	0
57100	3.049736	0
57300	3.070951	0
57500	3.092239	0
57700	3.113600	0
57900	3.135035	0
58100	3.156544	0
58300	3.178126	0
58500	3.199782	0
58700	3.221511	0
58900	3.243313	0
59100	3.265190	0
59300	3.287139	0
59500	3.309163	0
59700	3.331260	0
59900	3.353430	0
60100	3.375674	0
60300	3.397991	0
60500	3.420382	0
60700	3.442847	0
60900	3.465385	0
61100	3.487996	0
61300	3.510681	0
61500	3.533440	0
61700	3.556272	0
61900	3.579177	0
62100	3.602157	0
62300	3.625209	0
62500	3.648336	0
62700	3.671535	0
62900	3.694809	0
63100	3.718155	0
63300	3.741576	0
63500	3.765070	0
63700	3.788637	0
63900	3.812278	0
64100	3.835993	0
64300	3.859781	0
64500	3.883642	1
64700	3.907577	0
64900	3.931586	0
65100	3.955668	0
65300	3.979824	0
65500	4.004053	0
65700	4.028355	0
65900	4.052732	0
66100	4.077181	0
66300	4.101705	0
66500	4.126302	0
66700	4.150972	0
66900	4.175716	0
67100	4.200533	0
67300	4.225424	0
67500	4.250389	0
67700	4.275427	0
67900	4.300538	0
68100	4.325723	0
68300	4.350982	0
68500	4.376314	0
68700	4.401720	0
68900	4.427199	0
69100	4.452752	0
69300	4.478378	0
69500	4.504078	0
69700	4.529851	0
69900	4.555698	0
70100	4.581618	0
70300	4.607612	0
70500	4.633680	0
70700	4.659821	0
70900	4.686035	0
71100	4.712323	0
71300	4.738685	0
71500	4.765120	0
71700	4.791628	0
71900	4.818211	0
72100	4.844866	0
72300	4.871595	0
72500	4.898398	0
72700	4.925274	0
72900	4.952224	0
73100	4.979248	0
73300	5.006344	0
73500	5.033515	0
73700	5.060759	0
73900	5.088076	0
74100	5.115467	0
74300	5.142932	0
74500	5.170470	0
74700	5.198081	0
74900	5.225766	0
75100	5.253525	0
75300	5.281357	0
75500	5.309263	0
75700	5.337242	0
75900	5.365295	0
76100	5.393421	0
76300	5.421621	0
76500	5.449894	0
76700	5.478241	0
76900	5.506661	0
77100	5.535155	0
77300	5.563723	0
77500	5.592364	0
77700	5.621078	0
77900	5.649866	0
78100	5.678728	0
78300	5.707663	0
78500	5.736672	0
78700	5.765754	0
78900	5.794910	0
79100	5.824139	0
79300	5.853442	0
79500	5.882818	0
79700	5.912268	0
79900	5.941791	0
80100	5.971388	0
80300	6.001058	0
80500	6.030802	0
80700	6.060620	0
80900	6.090511	0
81100	6.120475	0
81300	6.150513	0
81500	6.180625	0
81700	6.210810	0
81900	6.241069	0
82100	6.271401	0
82300	6.301807	0
82500	6.332286	0
82700	6.362839	0
82900	6.393465	0
83100	6.424165	0
83300	6.454938	0
83500	6.485785	0
83700	6.516705	0
83900	6.547699	0
84100	6.578767	0
84300	6.609908	0
84500	6.641122	0
84700	6.672410	0
84900	6.703772	0
85100	6.735207	0
85300	6.766716	0
85500	6.798298	0
85700	6.829954	0
85900	6.861683	0
86100	6.893486	0
86300	6.925362	0
86500	6.957312	0
86700	6.989335	0
86900	7.021432	0
87100	7.053603	0
87300	7.085847	0
87500	7.118164	0
87700	7.150555	0
87900	7.183020	0
88100	7.215558	0
88300	7.248169	0
88500	7.280854	0
88700	7.313613	0
88900	7.346445	0
89100	7.379351	0
89300	7.412330	0
89500	7.445383	0
89700	7.478509	0
89900	7.511709	0
90100	7.544983	0
90300	7.578330	0
90500	7.611750	0
90700	7.645244	0
90900	7.678812	0
91100	7.712453	0
91300	7.746167	0
91500	7.779955	0
91700	7.813817	0
91900	7.847752	0
92100	7.881761	0
92300	7.915843	0
92500	7.949999	0
92700	7.984228	0
92900	8.018531	0
93100	8.052907	0
93300	8.087357	0
93500	8.121880	0
93700	8.156477	0
93900	8.191148	0
94100	8.225892	0
94300	8.260709	0
94500	8.295600	0
94700	8.330565	0
94900	8.365603	0
95100	8.400715	0
95300	8.435900	0
95500	8.471158	0
95700	8.506491	0
95900	8.541896	0
96100	8.577376	0
96300	8.612928	0
96500	8.648555	0
96700	8.684255	0
96900	8.720028	0
97100	8.755875	0
97300	8.791795	0
97500	8.827789	0
97700	8.863857	0
97900	8.899998	0
98100	8.936213	0
98300	8.972501	0
98500	9.008862	0
98700	9.045298	0
98900	9.081806	0
99100	9.118388	0
99300	9.155044	0
99500	9.191774	0
99700	9.228576	0
99900	9.265453	0
100100	9.302403	0
100300	9.339426	0
100500	9.376523	0
100700	9.413693	0
100900	9.450937	0
101100	9.488255	0
101300	9.525646	0
101500	9.563111	1
101700	9.600649	0
101900	9.638260	0
102100	9.675946	0
102300	9.713704	0
102500	9.751537	0
102700	9.789442	0
102900	9.827422	0
103100	9.865474	0
103300	9.903601	0
103500	9.941801	0
103700	9.980074	0
103900	10.018421	1
104100	10.056842	0
104300	10.095336	0
104500	10.133903	0
104700	10.172544	0
104900	10.211259	1
105100	10.250047	0
105300	10.288909	0
105500	10.327844	0
105700	10.366853	0
105900	10.405935	0
106100	10.445091	0
106300	10.484320	0
106500	10.523623	0
106700	10.562999	0
106900	10.602449	0
107100	10.641972	0
107300	10.681569	0
107500	10.721240	0
107700	10.760984	0
107900	10.800801	0
108100	10.840693	0
108300	10.880657	0
108500	10.920695	0
108700	10.960807	0
108900	11.000992	0
109100	11.041251	0
109300	11.081583	0
109500	11.121989	0
109700	11.162468	0
109900	11.203021	0
110100	11.243648	0
110300	11.284347	0
110500	11.325121	0
110700	11.365968	0
110900	11.406888	0
111100	11.447882	0
111300	11.488950	0
111500	11.530091	0
111700	11.571306	0
111900	11.612594	0
112100	11.653956	0
112300	11.695391	1
112500	11.736900	0
112700	11.778482	0
112900	11.820138	1
113100	11.861867	0
113300	11.903670	1
113500	11.945546	2
113700	11.987496	14724
113900	12.029520	132
114100	12.071617	1
114300	12.113787	1
114500	12.156031	0
114700	12.198349	0
114900	12.240740	0
115100	12.283204	0
115300	12.325743	0
115500	12.368354	1
115700	12.411040	1
115900	12.453798	0
116100	12.496631	0
116300	12.539536	0
116500	12.582516	1
116700	12.625569	1
116900	12.668695	1
117100	12.711895	2
117300	12.755168	0
117500	12.798515	0
117700	12.841936	0
117900	12.885430	1
118100	12.928998	0
118300	12.972639	17
118500	13.016353	15994
118700	13.060142	9
118900	13.104003	2
119100	13.147939	1
119300	13.191947	4
119500	13.236030	0
119700	13.280185	1
119900	13.324415	1
120100	13.368718	0
120300	13.413094	2
120500	13.457544	1
120700	13.502068	0
120900	13.546665	5
121100	13.591335	0
121300	13.636079	1
121500	13.680897	0
121700	13.725788	0
121900	13.770753	0
122100	13.815791	2
122300	13.860902	0
122500	13.906088	1
122700	13.951346	0
122900	13.996679	1218
123100	14.042085	136
123300	14.087564	1
123500	14.133117	0
123700	14.178743	1
123900	14.224443	1
124100	14.270217	0
124300	14.316064	1
124500	14.361984	0
124700	14.407978	1
124900	14.454046	0
125100	14.500187	0
125300	14.546402	0
125500	14.592690	4
125700	14.639052	3
125900	14.685487	1
126100	14.731996	0
126300	14.778578	1
126500	14.825234	0
126700	14.871963	0
126900	14.918766	3
127100	14.965643	0
127300	15.012593	457
127500	15.059616	10
127700	15.106713	1
127900	15.153884	1
128100	15.201128	0
128300	15.248445	0
128500	15.295837	0
128700	15.343301	0
128900	15.390840	0
129100	15.438451	0
129300	15.486137	0
129500	15.533895	0
129700	15.581728	1
129900	15.629634	9
130100	15.677613	0
130300	15.725666	1
130500	15.773792	0
130700	15.821992	1
130900	15.870266	1
131100	15.918613	4
131300	15.967033	338
131500	16.015527	17788
131700	16.064095	2
131900	16.112736	0
132100	16.161451	1
132300	16.210239	0
132500	16.259101	1
132700	16.308036	0
132900	16.357045	1
133100	16.406127	0
133300	16.455283	1
133500	16.504513	0
133700	16.553816	0
133900	16.603192	2
134100	16.652642	4
134300	16.702166	1
134500	16.751763	1
134700	16.801433	0
134900	16.851177	0
135100	16.900995	7
135300	16.950886	1
135500	17.000851	10730
135700	17.050889	16
135900	17.101001	0
136100	17.151186	1
136300	17.201445	1
136500	17.251777	0
136700	17.302183	0
136900	17.352663	1
137100	17.403216	0
137300	17.453842	1
137500	17.504542	0
137700	17.555316	0
137900	17.606163	0
138100	17.657083	0
138300	17.708077	2
138500	17.759145	0
138700	17.810286	0
138900	17.861501	0
139100	17.912789	0
139300	17.964151	0
139500	18.015586	33
139700	18.067095	0
139900	18.118677	1
140100	18.170333	0
140300	18.222063	0
140500	18.273866	0
140700	18.325742	0
140900	18.377692	0
141100	18.429716	0
141300	18.481813	0
141500	18.533983	0
141700	18.586227	2
141900	18.638545	2
142100	18.690936	1
142300	18.743401	0
142500	18.795939	0
142700	18.848551	0
142900	18.901236	1
143100	18.953995	4
143300	19.006828	5157
143500	19.059734	3
143700	19.112713	2
143900	19.165766	0
144100	19.218892	0
144300	19.272092	0
144500	19.325366	0
144700	19.378713	0
144900	19.432134	0
145100	19.485628	0
145300	19.539196	0
145500	19.592837	0
145700	19.646551	0
145900	19.700340	0
146100	19.754202	0
146300	19.808137	0
146500	19.862146	0
146700	19.916228	0
146900	19.970384	0
147100	20.024613	0
147300	20.078916	0
147500	20.133293	0
147700	20.187743	0
147900	20.242267	0
148100	20.296864	0
148300	20.351534	0
148500	20.406278	0
148700	20.461096	0
148900	20.515987	0
149100	20.570952	0
149300	20.625990	0
149500	20.681102	0
149700	20.736287	0
149900	20.791546	0
150100	20.846879	0
150300	20.902285	0
150500	20.957764	0
150700	21.013317	0
150900	21.068944	1
151100	21.124644	0
151300	21.180417	0
151500	21.236264	0
151700	21.292185	0
151900	21.348179	0
152100	21.404247	0
152300	21.460388	0
152500	21.516603	0
152700	21.572891	0
152900	21.629253	0
153100	21.685688	0
153300	21.742197	0
153500	21.798780	1
153700	21.855435	0
153900	21.912165	1
154100	21.968968	1
154300	22.025844	1
154500	22.082795	0
154700	22.139818	0
154900	22.196915	0
155100	22.254086	0
155300	22.311330	0
155500	22.368648	0
155700	22.426039	0
155900	22.483504	0
156100	22.541042	2
156300	22.598654	0
156500	22.656339	0
156700	22.714098	0
156900	22.771931	0
157100	22.829836	0
157300	22.887816	0
157500	22.945869	0
157700	23.003995	24
157900	23.062196	0
158100	23.120469	0
158300	23.178816	0
158500	23.237237	0
158700	23.295731	0
158900	23.354299	0
159100	23.412940	0
159300	23.471655	1
159500	23.530443	4
159700	23.589305	2
159900	23.648240	0
160100	23.707249	0
160300	23.766332	1
160500	23.825488	0
160700	23.884717	6
160900	23.944020	92
161100	24.003397	56097
161300	24.062847	50
161500	24.122370	4
161700	24.181968	1
161900	24.241638	5
162100	24.301382	0
162300	24.361200	2
162500	24.421091	2
162700	24.481056	2
162900	24.541094	11
163100	24.601206	9
163300	24.661392	0
163500	24.721651	2
163700	24.781983	2
163900	24.842389	3
164100	24.902869	16
164300	24.963422	219
164500	25.024048	103165
164700	25.084748	66
164900	25.145522	14
165100	25.206369	5
165300	25.267290	5
165500	25.328284	5
165700	25.389352	5
165900	25.450493	4
166100	25.511708	7
166300	25.572996	10
166500	25.634358	2
166700	25.695793	3
166900	25.757302	1
167100	25.818885	0
167300	25.880541	4
167500	25.942270	15
167700	26.004073	41551
167900	26.065950	626
168100	26.127900	134
168300	26.189923	53
168500	26.252021	21
168700	26.314191	15
168900	26.376436	10
169100	26.438753	9
169300	26.501145	7
169500	26.563609	6
169700	26.626148	4
169900	26.688760	2
170100	26.751445	6
170300	26.814204	3
170500	26.877036	3
170700	26.939942	1
170900	27.002922	1178
171100	27.065975	26
171300	27.129101	1
171500	27.192302	0
171700	27.255575	3
171900	27.318922	1
172100	27.382343	2
172300	27.445837	2
172500	27.509405	0
172700	27.573046	2
172900	27.636761	0
173100	27.700550	1
173300	27.764411	0
173500	27.828347	0
173700	27.892356	0
173900	27.956438	20
174100	28.020594	25
174300	28.084824	0
174500	28.149127	0
174700	28.213503	0
174900	28.277954	0
175100	28.342477	1
175300	28.407074	1
175500	28.471745	0
175700	28.536489	0
175900	28.601307	0
176100	28.666198	0
176300	28.731163	0
176500	28.796202	0
176700	28.861314	1
176900	28.926499	4
177100	28.991758	94
177300	29.057090	0
177500	29.122496	0
177700	29.187976	0
177900	29.253529	1
178100	29.319156	0
178300	29.384856	0
178500	29.450629	0
178700	29.516477	0
178900	29.582397	0
179100	29.648392	1
179300	29.714459	0
179500	29.780601	0
179700	29.846815	1
179900	29.913104	0
180100	29.979466	11
180300	30.045901	0
180500	30.112410	0
180700	30.178993	0
180900	30.245649	0
181100	30.312378	0
181300	30.379181	0
181500	30.446058	0
181700	30.513008	0
181900	30.580032	0
182100	30.647129	0
182300	30.714300	0
182500	30.781544	0
182700	30.848862	0
182900	30.916253	0
183100	30.983718	80
183300	31.051256	89
183500	31.118868	0
183700	31.186554	0
183900	31.254313	0
184100	31.322145	0
184300	31.390051	0
184500	31.458031	0
184700	31.526084	0
184900	31.594210	1
185100	31.662411	0
185300	31.730684	0
185500	31.799031	1
185700	31.867452	0
185900	31.935946	45
186100	32.004514	325
186300	32.073156	0
186500	32.141871	1
186700	32.210659	0
186900	32.279521	0
187100	32.348456	0
187300	32.417465	0
187500	32.486548	0
187700	32.555704	0
187900	32.624933	0
188100	32.694236	1
188300	32.763613	0
188500	32.833063	0
188700	32.902587	0
188900	32.972184	182
189100	33.041855	2
189300	33.111599	1
189500	33.181417	0
189700	33.251308	3
189900	33.321273	1
190100	33.391312	0
190300	33.461424	0
190500	33.531609	0
190700	33.601868	0
190900	33.672201	1
191100	33.742607	0
191300	33.813086	0
191500	33.883639	0
191700	33.954266	9
191900	34.024966	6
192100	34.095740	0
192300	34.166587	0
192500	34.237508	0
192700	34.308502	1
192900	34.379570	0
193100	34.450711	20
193300	34.521926	0
193500	34.593215	1
193700	34.664577	0
193900	34.736012	1
194100	34.807521	9
194300	34.879104	19
194500	34.950760	94497
194700	35.022489	2801
194900	35.094292	246
195100	35.166169	70
195300	35.238119	39
195500	35.310143	18
195700	35.382240	11
195900	35.454411	6
196100	35.526655	4
196300	35.598973	3
196500	35.671364	2
196700	35.743829	2
196900	35.816368	1
197100	35.888980	2
197300	35.961665	3550
197500	36.034424	11669
197700	36.107257	6
197900	36.180163	2
198100	36.253143	0
198300	36.326196	1
198500	36.399322	9
198700	36.472522	2
198900	36.545796	3
199100	36.619143	2
199300	36.692564	0
199500	36.766059	1
199700	36.839626	8
199900	36.913268	72
200100	36.986983	34555
200300	37.060771	195
200500	37.134633	50
200700	37.208569	10
200900	37.282578	7
201100	37.356660	3
201300	37.430816	4
201500	37.505046	1
201700	37.579349	3
201900	37.653726	0
202100	37.728176	3
202300	37.802700	2
202500	37.877297	0
202700	37.951968	13
202900	38.026712	1786
203100	38.101530	2
203300	38.176421	1
203500	38.251386	1
203700	38.326425	2
203900	38.401537	1
204100	38.476722	0
204300	38.551981	3
204500	38.627314	0
204700	38.702720	0
204900	38.778199	2
205100	38.853753	1
205300	38.929379	0
205500	39.005080	824
205700	39.080853	12
205900	39.156701	2
206100	39.232621	0
206300	39.308616	0
206500	39.384684	1
206700	39.460825	1
206900	39.537040	2
207100	39.613328	1
207300	39.689690	2
207500	39.766126	0
207700	39.842635	0
207900	39.919218	3
208100	39.995874	2106
208300	40.072603	8
208500	40.149406	1
