# Binning: 200 channels
# Deadtime Correction: on
Channel	m/z	Intensity
100	0.000233	0
300	0.000453	194
500	0.000746	3
700	0.001110	1
900	0.001547	0
1100	0.002056	0
1300	0.002638	2
1500	0.003292	5
1700	0.004018	2
1900	0.004817	0
2100	0.005688	0
2300	0.006632	2
2500	0.007647	0
2700	0.008736	1
2900	0.009896	1
3100	0.011129	0
3300	0.012434	0
3500	0.013812	0
3700	0.015261	0
3900	0.016784	1
4100	0.018378	0
4300	0.020045	1
4500	0.021784	0
4700	0.023596	0
4900	0.025480	0
5100	0.027436	0
5300	0.029465	1
5500	0.031566	0
5700	0.033739	0
5900	0.035985	0
6100	0.038303	0
6300	0.040694	0
6500	0.043156	0
6700	0.045692	0
6900	0.048299	0
7100	0.050979	0
7300	0.053731	0
7500	0.056556	0
7700	0.059453	1
7900	0.062422	1
8100	0.065463	0
8300	0.068577	0
8500	0.071764	0
8700	0.075022	0
8900	0.078353	0
9100	0.081756	0
9300	0.085232	0
9500	0.088780	1
9700	0.092401	0
9900	0.096093	0
10100	0.099858	1
10300	0.103696	1
10500	0.107606	0
10700	0.111588	0
10900	0.115642	0
11100	0.119769	0
11300	0.123968	0
11500	0.128240	1
11700	0.132584	0
11900	0.137000	0
12100	0.141488	1
12300	0.146049	0
12500	0.150683	0
12700	0.155388	1
12900	0.160166	0
13100	0.165017	0
13300	0.169939	0
13500	0.174934	0
13700	0.180002	0
13900	0.185142	0
14100	0.190354	0
14300	0.195638	0
14500	0.200995	0
14700	0.206424	0
14900	0.211925	0
15100	0.217499	1
15300	0.223146	0
15500	0.228864	0
15700	0.234655	0
15900	0.240518	0
16100	0.246454	0
16300	0.252462	0
16500	0.258542	0
16700	0.264695	0
16900	0.270920	0
17100	0.277217	1
17300	0.283587	0
17500	0.290029	2
17700	0.296543	0
17900	0.303130	0
18100	0.309789	0
18300	0.316520	0
18500	0.323324	0
18700	0.330200	0
18900	0.337149	0
19100	0.344170	0
19300	0.351263	0
19500	0.358428	0
19700	0.365666	0
19900	0.372977	0
20100	0.380359	0
20300	0.387814	0
20500	0.395341	0
20700	0.402941	1
20900	0.410613	0
21100	0.418357	1
21300	0.426174	0
21500	0.434063	1
21700	0.442025	1
21900	0.450058	0
22100	0.458164	0
22300	0.466343	0
22500	0.474594	0
22700	0.482917	0
22900	0.491312	0
23100	0.499780	1
23300	0.508320	1
23500	0.516933	0
23700	0.525618	0
23900	0.534375	0
24100	0.543205	0
24300	0.552107	0
24500	0.561081	0
24700	0.570128	1
24900	0.579247	0
25100	0.588438	0
25300	0.597702	0
25500	0.607038	0
25700	0.616446	0
25900	0.625927	0
26100	0.635480	0
26300	0.645105	0
26500	0.654803	0
26700	0.664573	0
26900	0.674416	0
27100	0.684331	0
27300	0.694318	0
27500	0.704377	0
27700	0.714509	0
27900	0.724714	1
28100	0.734990	0
28300	0.745339	0
28500	0.755761	0
28700	0.766254	0
28900	0.776820	0
29100	0.787459	0
29300	0.798169	0
29500	0.808952	0
29700	0.819808	1
29900	0.830735	0
30100	0.841736	0
30300	0.852808	0
30500	0.863953	2
30700	0.875170	1
30900	0.886460	1
31100	0.897821	0
31300	0.909256	0
31500	0.920762	0
31700	0.932341	0
31900	0.943992	1
32100	0.955716	0
32300	0.967512	12
32500	0.979380	22
32700	0.991321	21
32900	1.003334	989325
33100	1.015419	23634
33300	1.027577	53
33500	1.039807	35
33700	1.052109	26
33900	1.064484	23
34100	1.076931	22
34300	1.089451	22
34500	1.102043	20
34700	1.114707	16
34900	1.127443	13
35100	1.140252	7
35300	1.153133	10
35500	1.166087	4
35700	1.179113	0
35900	1.192211	0
36100	1.205382	7
36300	1.218625	6
36500	1.231940	1
36700	1.245328	2
36900	1.258788	2
37100	1.272320	1
37300	1.285925	0
37500	1.299602	2
37700	1.313351	3
37900	1.327173	0
38100	1.341067	1
38300	1.355034	0
38500	1.369073	1
38700	1.383184	0
38900	1.397367	0
39100	1.411623	0
39300	1.425951	2
39500	1.440352	0
39700	1.454825	2
39900	1.469370	1
40100	1.483988	0
40300	1.498678	0
40500	1.513440	0
40700	1.528275	0
40900	1.543182	0
41100	1.558161	1
41300	1.573213	0
41500	1.588337	0
41700	1.603533	0
41900	1.618802	0
42100	1.634143	0
42300	1.649557	0
42500	1.665043	0
42700	1.680601	0
42900	1.696231	1
43100	1.711934	0
43300	1.727709	0
43500	1.743557	0
43700	1.759477	0
43900	1.775469	0
44100	1.791534	2
44300	1.807671	2
44500	1.823880	0
44700	1.840162	0
44900	1.856516	0
45100	1.872942	2
45300	1.889441	0
45500	1.906012	0
45700	1.922655	0
45900	1.939371	0
46100	1.956159	0
46300	1.973020	0
46500	1.989953	0
46700	2.006958	101
46900	2.024035	25
47100	2.041185	1
47300	2.058407	0
47500	2.075702	2
47700	2.093069	0
47900	2.110508	2
48100	2.128020	0
48300	2.145604	1
48500	2.163260	0
48700	2.180989	1
48900	2.198790	0
49100	2.216663	0
49300	2.234609	1
49500	2.252627	0
49700	2.270718	0
49900	2.288880	2
50100	2.307116	0
50300	2.325423	0
50500	2.343803	0
50700	2.362255	0
50900	2.380780	0
51100	2.399376	0
51300	2.418046	0
51500	2.436787	0
51700	2.455601	0
51900	2.474488	1
52100	2.493446	0
52300	2.512477	0
52500	2.531581	1
52700	2.550756	1
52900	2.570004	0
53100	2.589325	0
53300	2.608717	0
53500	2.628182	0
53700	2.647720	0
53900	2.667330	1
54100	2.687012	2
54300	2.706766	0
54500	2.726593	1
54700	2.746492	0
54900	2.766464	2
55100	2.786508	0
55300	2.806624	1
55500	2.826813	0
55700	2.847074	1
55900	2.867407	0
56100	2.887813	0
56300	2.908291	0
56500	2.928841	1
56700	2.949464	0
56900	2.970159	1
57100	2.990926	0
57300	3.011766	0
57500	3.032678	0
57700	3.053662	0
57900	3.074719	1
58100	3.095848	0
58300	3.117050	1
58500	3.138324	1
58700	3.159670	0
58900	3.181088	1
59100	3.202579	0
59300	3.224143	2
59500	3.245778	0
59700	3.267486	0
59900	3.289266	0
60100	3.311119	1
60300	3.333044	1
60500	3.355041	0
60700	3.377111	0
60900	3.399253	1
61100	3.421468	0
61300	3.443754	1
61500	3.466113	0
61700	3.488545	0
61900	3.511049	0
62100	3.533625	1
62300	3.556273	0
62500	3.578994	0
62700	3.601787	0
62900	3.624653	0
63100	3.647591	1
63300	3.670601	0
63500	3.693684	0
63700	3.716839	4
63900	3.740066	3
64100	3.763366	0
64300	3.786738	1
64500	3.810182	0
64700	3.833699	1
64900	3.857288	1
65100	3.880949	0
65300	3.904683	0
65500	3.928489	1
65700	3.952367	0
65900	3.976318	0
66100	4.000341	3
66300	4.024437	0
66500	4.048605	1
66700	4.072845	0
66900	4.097158	0
67100	4.121543	1
67300	4.146000	0
67500	4.170529	0
67700	4.195131	1
67900	4.219806	1
68100	4.244552	0
68300	4.269371	0
68500	4.294263	1
68700	4.319226	1
68900	4.344262	1
69100	4.369371	0
69300	4.394552	3
69500	4.419805	1
69700	4.445130	1
69900	4.470528	0
70100	4.495998	0
70300	4.521541	0
70500	4.547156	2
70700	4.572843	0
70900	4.598602	0
71100	4.624434	0
71300	4.650339	0
71500	4.676315	0
71700	4.702364	0
71900	4.728485	0
72100	4.754679	0
72300	4.780945	0
72500	4.807284	0
72700	4.833694	0
72900	4.860177	1
73100	4.886733	0
73300	4.913361	0
73500	4.940061	0
73700	4.966833	0
73900	4.993678	1
74100	5.020595	0
74300	5.047585	1
74500	5.074646	0
74700	5.101781	0
74900	5.128987	1
75100	5.156266	0
75300	5.183617	0
75500	5.211041	1
75700	5.238537	0
75900	5.266105	0
76100	5.293746	1
76300	5.321459	1
76500	5.349244	0
76700	5.377102	2
76900	5.405032	0
77100	5.433035	0
77300	5.461109	0
77500	5.489257	1
77700	5.517476	0
77900	5.545768	0
78100	5.574132	0
78300	5.602569	0
78500	5.631077	1
78700	5.659659	0
78900	5.688312	0
79100	5.717038	0
79300	5.745836	1
79500	5.774707	0
79700	5.803650	0
79900	5.832665	0
80100	5.861753	0
80300	5.890913	0
80500	5.920145	0
80700	5.949450	0
80900	5.978827	0
81100	6.008277	0
81300	6.037799	0
81500	6.067393	0
81700	6.097059	1
81900	6.126798	1
82100	6.156609	0
82300	6.186493	0
82500	6.216449	0
82700	6.246477	1
82900	6.276577	1
83100	6.306750	0
83300	6.336996	0
83500	6.367313	1
83700	6.397703	0
83900	6.428166	0
84100	6.458700	0
84300	6.489307	0
84500	6.519987	1
84700	6.550738	0
84900	6.581562	0
85100	6.612459	0
85300	6.643428	0
85500	6.674469	1
85700	6.705582	0
85900	6.736768	0
86100	6.768026	0
86300	6.799357	1
86500	6.830760	2
86700	6.862235	0
86900	6.893783	0
87100	6.925403	1
87300	6.957095	0
87500	6.988859	0
87700	7.020696	0
87900	7.052606	2
88100	7.084587	1
88300	7.116642	0
88500	7.148768	0
88700	7.180967	0
88900	7.213238	0
89100	7.245581	0
89300	7.277997	0
89500	7.310485	0
89700	7.343046	1
89900	7.375678	0
90100	7.408384	0
90300	7.441161	0
90500	7.474011	1
90700	7.506933	0
90900	7.539928	1
91100	7.572995	0
91300	7.606134	0
91500	7.639346	0
91700	7.672630	0
91900	7.705986	1
92100	7.739415	1
92300	7.772916	1
92500	7.806489	0
92700	7.840135	0
92900	7.873853	0
93100	7.907644	0
93300	7.941506	0
93500	7.975442	0
93700	8.009449	0
93900	8.043529	1
94100	8.077681	0
94300	8.111906	0
94500	8.146202	0
94700	8.180572	0
94900	8.215013	0
95100	8.249527	0
95300	8.284114	0
95500	8.318772	0
95700	8.353503	1
95900	8.388307	1
96100	8.423182	0
96300	8.458130	0
96500	8.493151	0
96700	8.528243	0
96900	8.563409	0
97100	8.598646	0
97300	8.633956	0
97500	8.669338	1
97700	8.704793	0
97900	8.740319	0
98100	8.775919	0
98300	8.811590	1
98500	8.847334	0
98700	8.883150	0
98900	8.919039	1
99100	8.955000	1
99300	8.991033	1
99500	9.027139	0
99700	9.063317	0
99900	9.099567	0
100100	9.135890	0
100300	9.172285	0
100500	9.208752	0
100700	9.245292	0
100900	9.281904	0
101100	9.318589	0
101300	9.355345	0
101500	9.392175	0
101700	9.429076	0
101900	9.466050	0
102100	9.503096	0
102300	9.540215	0
102500	9.577406	0
102700	9.614669	0
102900	9.652005	1
103100	9.689412	1
103300	9.726893	1
103500	9.764445	0
103700	9.802070	0
103900	9.839768	1
104100	9.877538	0
104300	9.915380	1
104500	9.953294	0
104700	9.991281	0
104900	10.029340	11
105100	10.067471	0
105300	10.105675	0
105500	10.143951	0
105700	10.182300	0
105900	10.220721	0
106100	10.259214	0
106300	10.297780	0
106500	10.336417	0
106700	10.375128	1
106900	10.413910	0
107100	10.452765	0
107300	10.491693	1
107500	10.530692	0
107700	10.569764	1
107900	10.608909	0
108100	10.648125	0
108300	10.687414	0
108500	10.726776	0
108700	10.766210	2
108900	10.805716	0
109100	10.845294	1
109300	10.884945	1
109500	10.924668	0
109700	10.964464	0
109900	11.004332	38
110100	11.044272	0
110300	11.084284	0
110500	11.124369	0
110700	11.164527	0
110900	11.204756	0
111100	11.245058	0
111300	11.285432	1
111500	11.325879	1
111700	11.366398	1
111900	11.406990	0
112100	11.447653	1
112300	11.488389	0
112500	11.529198	0
112700	11.570079	3
112900	11.611032	1
113100	11.652057	0
113300	11.693155	1
113500	11.734325	2
113700	11.775568	0
113900	11.816883	1
114100	11.858270	0
114300	11.899729	0
114500	11.941261	0
114700	11.982866	106550
114900	12.024542	14348
115100	12.066291	2
115300	12.108112	5
115500	12.150006	5
115700	12.191972	5
115900	12.234011	2
116100	12.276121	6
116300	12.318304	0
116500	12.360560	2
116700	12.402888	7
116900	12.445288	2
117100	12.487760	3
117300	12.530305	4
117500	12.572922	3
117700	12.615612	7
117900	12.658374	0
118100	12.701208	3
118300	12.744114	3
118500	12.787093	4
118700	12.830145	4
118900	12.873268	3
119100	12.916464	2
119300	12.959733	5
119500	13.003073	176760
119700	13.046486	114
119900	13.089972	10
120100	13.133529	5
120300	13.177159	12
120500	13.220862	10
120700	13.264637	13
120900	13.308484	10
121100	13.352403	6
121300	13.396395	2
121500	13.440459	3
121700	13.484596	3
121900	13.528805	24
122100	13.573086	23
122300	13.617440	3
122500	13.661866	3
122700	13.706364	5
122900	13.750934	2
123100	13.795577	0
123300	13.840293	4
123500	13.885080	1
123700	13.929940	1
123900	13.974873	1
124100	14.019878	22657
124300	14.064955	14
124500	14.110104	4
124700	14.155326	2
124900	14.200620	5
125100	14.245987	2
125300	14.291425	1
125500	14.336937	2
125700	14.382520	2
125900	14.428176	4
126100	14.473904	3
126300	14.519705	3
126500	14.565578	0
126700	14.611523	45
126900	14.657541	4
127100	14.703631	4
127300	14.749793	2
127500	14.796028	3
127700	14.842335	3
127900	14.888714	3
128100	14.935166	1
128300	14.981690	0
128500	15.028287	22921
128700	15.074955	68
128900	15.121696	16
129100	15.168510	9
129300	15.215396	7
129500	15.262354	5
129700	15.309385	7
129900	15.356487	4
130100	15.403663	3
130300	15.450910	5
130500	15.498230	4
130700	15.545623	2
130900	15.593087	1
131100	15.640624	19
131300	15.688234	4
131500	15.735915	2
131700	15.783669	2
131900	15.831496	1
132100	15.879394	1
132300	15.927366	7
132500	15.975409	553972
132700	16.023525	66557
132900	16.071713	6
133100	16.119973	3
133300	16.168306	5
133500	16.216711	12
133700	16.265189	11
133900	16.313739	7
134100	16.362361	4
134300	16.411056	7
134500	16.459823	11
134700	16.508662	7
134900	16.557574	2
135100	16.606558	1
135300	16.655614	4
135500	16.704743	3
135700	16.753944	4
135900	16.803217	2
136100	16.852563	10
136300	16.901981	2
136500	16.951472	2
136700	17.001034	248747
136900	17.050670	141
137100	17.100377	12
137300	17.150157	10
137500	17.200009	11
137700	17.249934	7
137900	17.299931	8
138100	17.350000	8
138300	17.400141	6
138500	17.450355	9
138700	17.500642	3
138900	17.551000	4
139100	17.601431	7
139300	17.651935	4
139500	17.702510	66
139700	17.753158	19
139900	17.803879	1
140100	17.854672	4
140300	17.905537	5
140500	17.956474	5
140700	18.007484	1282
140900	18.058566	5
141100	18.109721	2
141300	18.160948	3
141500	18.212247	3
141700	18.263618	2
141900	18.315062	3
142100	18.366579	1
142300	18.418167	3
142500	18.469828	2
142700	18.521561	0
142900	18.573367	0
143100	18.625245	3
143300	18.677195	2
143500	18.729218	0
143700	18.781313	0
143900	18.833481	0
144100	18.885720	2
144300	18.938033	3
144500	18.990417	28333
144700	19.042874	200
144900	19.095403	9
145100	19.148005	3
145300	19.200678	2
145500	19.253425	1
145700	19.306243	2
145900	19.359134	1
146100	19.412097	0
146300	19.465133	2
146500	19.518241	0
146700	19.571421	0
146900	19.624674	3
147100	19.677999	3
147300	19.731396	0
147500	19.784866	4
147700	19.838408	1
147900	19.892023	0
148100	19.945709	1
148300	19.999468	2
148500	20.053300	2
148700	20.107204	0
148900	20.161180	1
149100	20.215228	0
149300	20.269349	0
149500	20.323543	1
149700	20.377808	0
149900	20.432146	0
150100	20.486556	0
150300	20.541039	1
150500	20.595594	1
150700	20.650221	0
150900	20.704921	1
151100	20.759693	0
151300	20.814537	1
151500	20.869454	1
151700	20.924443	1
151900	20.979505	0
152100	21.034638	0
152300	21.089844	0
152500	21.145123	0
152700	21.200474	1
152900	21.255897	0
153100	21.311392	1
153300	21.366960	0
153500	21.422601	0
153700	21.478313	0
153900	21.534098	0
154100	21.589955	0
154300	21.645885	0
154500	21.701887	1
154700	21.757961	0
154900	21.814108	1
155100	21.870327	0
155300	21.926618	2
155500	21.982982	1
155700	22.039418	5
155900	22.095927	0
156100	22.152507	0
156300	22.209161	0
156500	22.265886	0
156700	22.322684	0
156900	22.379554	0
157100	22.436497	1
157300	22.493511	0
157500	22.550599	1
157700	22.607758	0
157900	22.664990	1
158100	22.722295	0
158300	22.779671	1
158500	22.837120	0
158700	22.894641	1
158900	22.952235	3
159100	23.009901	143
159300	23.067640	2
159500	23.125450	0
159700	23.183333	1
159900	23.241289	1
160100	23.299317	3
160300	23.357417	1
160500	23.415589	0
160700	23.473834	3
160900	23.532151	1
161100	23.590541	0
161300	23.649003	0
161500	23.707537	0
161700	23.766144	2
161900	23.824823	1
162100	23.883574	4
162300	23.942397	318
162500	24.001293	378798
162700	24.060262	131
162900	24.119302	10
163100	24.178416	11
163300	24.237601	21
163500	24.296859	4
163700	24.356189	13
163900	24.415591	16
164100	24.475066	19
164300	24.534613	19
164500	24.594233	13
164700	24.653924	13
164900	24.713689	19
165100	24.773525	11
165300	24.833434	13
165500	24.893415	19
165700	24.953469	31
165900	25.013595	417462
166100	25.073793	183
166300	25.134064	23
166500	25.194407	14
166700	25.254822	15
166900	25.315310	18
167100	25.375870	8
167300	25.436502	10
167500	25.497207	9
167700	25.557984	9
167900	25.618834	6
168100	25.679755	11
168300	25.740750	6
168500	25.801816	6
168700	25.862955	6
168900	25.924166	3
169100	25.985450	278599
169300	26.046806	4742
169500	26.108234	311
169700	26.169734	119
169900	26.231307	77
170100	26.292953	23
170300	26.354670	18
170500	26.416460	12
170700	26.478323	6
170900	26.540257	6
171100	26.602264	7
171300	26.664344	5
171500	26.726496	4
171700	26.788720	7
171900	26.851016	1
172100	26.913385	3
172300	26.975826	3739
172500	27.038340	5472
172700	27.100925	11
172900	27.163584	9
173100	27.226314	3
173300	27.289117	3
173500	27.351992	4
173700	27.414940	3
173900	27.477960	3
174100	27.541052	1
174300	27.604217	0
174500	27.667454	1
174700	27.730763	3
174900	27.794145	2
175100	27.857599	0
175300	27.921125	6
175500	27.984724	979
175700	28.048395	98
175900	28.112139	1
176100	28.175955	0
176300	28.239843	0
176500	28.303803	1
176700	28.367836	1
176900	28.431941	0
177100	28.496119	1
177300	28.560369	1
177500	28.624691	3
177700	28.689086	2
177900	28.753553	0
178100	28.818092	2
178300	28.882704	2
178500	28.947388	108
178700	29.012144	1718
178900	29.076973	3
179100	29.141874	4
179300	29.206847	0
179500	29.271893	2
179700	29.337011	0
179900	29.402202	0
180100	29.467464	1
180300	29.532800	1
180500	29.598207	3
180700	29.663687	1
180900	29.729239	3
181100	29.794864	2
181300	29.860561	0
181500	29.926330	1
181700	29.992172	462
181900	30.058085	4
182100	30.124072	0
182300	30.190130	2
182500	30.256262	0
182700	30.322465	2
182900	30.388741	0
183100	30.455089	1
183300	30.521509	1
183500	30.588002	3
183700	30.654567	1
183900	30.721204	0
184100	30.787914	1
184300	30.854696	0
184500	30.921551	0
184700	30.988478	1490
184900	31.055477	394
185100	31.122549	6
185300	31.189693	0
185500	31.256909	0
185700	31.324197	0
185900	31.391558	1
186100	31.458992	0
186300	31.526497	3
186500	31.594075	0
186700	31.661726	0
186900	31.729449	3
187100	31.797244	0
187300	31.865111	0
187500	31.933051	856
187700	32.001063	13410
187900	32.069147	6
188100	32.137304	1
188300	32.205533	0
188500	32.273835	0
188700	32.342209	2
188900	32.410655	2
189100	32.479174	0
189300	32.547765	2
189500	32.616428	0
189700	32.685163	1
189900	32.753971	0
190100	32.822852	0
190300	32.891804	1
190500	32.960829	2787
190700	33.029927	1267
190900	33.099097	1
191100	33.168339	3
191300	33.237653	1
191500	33.307040	2
191700	33.376499	2
191900	33.446031	0
192100	33.515634	0
192300	33.585311	1
192500	33.655059	1
192700	33.724880	3
192900	33.794773	1
193100	33.864739	1
193300	33.934777	156
193500	34.004887	150
193700	34.075070	0
193900	34.145325	0
194100	34.215652	0
194300	34.286052	0
194500	34.356524	3
194700	34.427068	1
194900	34.497685	0
195100	34.568374	0
195300	34.639135	1
195500	34.709969	4
195700	34.780875	1
195900	34.851854	0
196100	34.922905	211
196300	34.994028	953265
196500	35.065223	608
196700	35.136491	203
196900	35.207831	72
197100	35.279244	45
197300	35.350729	22
197500	35.422286	27
197700	35.493916	23
197900	35.565618	20
198100	35.637392	7
198300	35.709239	10
198500	35.781158	7
198700	35.853149	5
198900	35.925213	3
199100	35.997349	29416
199300	36.069558	22
199500	36.141838	7
199700	36.214192	4
199900	36.286617	9
200100	36.359115	10
200300	36.431685	6
200500	36.504328	3
200700	36.577042	3
200900	36.649830	6
201100	36.722689	4
201300	36.795621	2
201500	36.868626	0
201700	36.941702	316333
201900	37.014851	17015
202100	37.088073	185
202300	37.161366	47
202500	37.234732	23
202700	37.308171	20
202900	37.381681	16
203100	37.455265	6
203300	37.528920	14
203500	37.602648	4
203700	37.676448	3
203900	37.750320	5
204100	37.824265	4
204300	37.898282	2
204500	37.972372	1647
204700	38.046534	3281
204900	38.120768	5
205100	38.195075	5
205300	38.269454	4
205500	38.343905	3
205700	38.418429	4
205900	38.493025	3
206100	38.567693	7
206300	38.642434	4
206500	38.717247	4
206700	38.792132	5
206900	38.867090	1
207100	38.942120	9
207300	39.017223	2616
207500	39.092397	17
