# Binning: 200 channels
# Deadtime Correction: on
Channel	m/z	Intensity
100	0.000270	0
300	0.000503	59
500	0.000809	1
700	0.001188	1
900	0.001638	0
1100	0.002161	0
1300	0.002757	16
1500	0.003424	20
1700	0.004164	9
1900	0.004977	1
2100	0.005861	0
2300	0.006818	1
2500	0.007848	0
2700	0.008949	2
2900	0.010123	0
3100	0.011370	2
3300	0.012688	1
3500	0.014079	1
3700	0.015542	1
3900	0.017078	0
4100	0.018686	1
4300	0.020366	0
4500	0.022119	0
4700	0.023944	0
4900	0.025841	0
5100	0.027810	1
5300	0.029852	0
5500	0.031967	1
5700	0.034153	0
5900	0.036412	1
6100	0.038743	0
6300	0.041147	1
6500	0.043623	0
6700	0.046171	0
6900	0.048791	0
7100	0.051484	0
7300	0.054249	0
7500	0.057087	0
7700	0.059997	1
7900	0.062979	0
8100	0.066033	0
8300	0.069160	0
8500	0.072359	0
8700	0.075631	1
8900	0.078974	1
9100	0.082391	0
9300	0.085879	0
9500	0.089440	0
9700	0.093073	1
9900	0.096778	0
10100	0.100556	0
10300	0.104406	0
10500	0.108329	0
10700	0.112323	0
10900	0.116390	0
11100	0.120530	1
11300	0.124742	1
11500	0.129026	0
11700	0.133382	0
11900	0.137811	0
12100	0.142312	0
12300	0.146885	0
12500	0.151531	0
12700	0.156249	0
12900	0.161039	0
13100	0.165902	0
13300	0.170837	2
13500	0.175844	0
13700	0.180924	0
13900	0.186076	0
14100	0.191300	0
14300	0.196597	0
14500	0.201966	0
14700	0.207407	1
14900	0.212921	0
15100	0.218507	0
15300	0.224165	2
15500	0.229896	0
15700	0.235699	1
15900	0.241574	0
16100	0.247522	0
16300	0.253542	0
16500	0.259634	0
16700	0.265798	1
16900	0.272035	0
17100	0.278345	0
17300	0.284726	0
17500	0.291180	0
17700	0.297706	0
17900	0.304305	1
18100	0.310976	0
18300	0.317719	0
18500	0.324534	0
18700	0.331422	1
18900	0.338383	0
19100	0.345415	0
19300	0.352520	1
19500	0.359697	0
19700	0.366947	0
19900	0.374268	0
20100	0.381663	0
20300	0.389129	0
20500	0.396668	0
20700	0.404279	0
20900	0.411963	0
21100	0.419718	0
21300	0.427546	0
21500	0.435447	0
21700	0.443420	0
21900	0.451465	1
22100	0.459582	0
22300	0.467772	1
22500	0.476034	0
22700	0.484369	0
22900	0.492775	0
23100	0.501254	0
23300	0.509806	0
23500	0.518430	0
23700	0.527126	0
23900	0.535894	0
24100	0.544735	0
24300	0.553648	0
24500	0.562633	0
24700	0.571691	0
24900	0.580821	0
25100	0.590023	0
25300	0.599298	0
25500	0.608645	0
25700	0.618064	0
25900	0.627556	0
26100	0.637120	0
26300	0.646756	0
26500	0.656465	0
26700	0.666246	0
26900	0.676099	0
27100	0.686025	0
27300	0.696023	0
27500	0.706093	0
27700	0.716236	0
27900	0.726451	0
28100	0.736738	0
28300	0.747098	1
28500	0.757530	0
28700	0.768034	0
28900	0.778611	0
29100	0.789260	0
29300	0.799981	0
29500	0.810774	0
29700	0.821640	0
29900	0.832579	0
30100	0.843589	0
30300	0.854672	0
30500	0.865827	0
30700	0.877055	0
30900	0.888355	0
31100	0.899727	1
31300	0.911171	0
31500	0.922688	0
31700	0.934278	10
31900	0.945939	5
32100	0.957673	1
32300	0.969479	121
32500	0.981358	42
32700	0.993308	45
32900	1.005332	517383
33100	1.017427	1258
33300	1.029595	213
33500	1.041835	96
33700	1.054147	31
33900	1.066532	13
34100	1.078989	16
34300	1.091519	13
34500	1.104121	19
34700	1.116795	7
34900	1.129541	4
35100	1.142360	8
35300	1.155251	2
35500	1.168215	2
35700	1.181250	3
35900	1.194358	2
36100	1.207539	0
36300	1.220791	2
36500	1.234117	3
36700	1.247514	0
36900	1.260984	0
37100	1.274526	2
37300	1.288140	1
37500	1.301827	2
37700	1.315586	1
37900	1.329417	0
38100	1.343321	1
38300	1.357297	0
38500	1.371345	1
38700	1.385466	1
38900	1.399659	0
39100	1.413924	0
39300	1.428262	0
39500	1.442672	0
39700	1.457154	0
39900	1.471709	0
40100	1.486336	0
40300	1.501035	0
40500	1.515807	0
40700	1.530651	0
40900	1.545567	0
41100	1.560556	0
41300	1.575617	0
41500	1.590750	0
41700	1.605955	1
41900	1.621233	0
42100	1.636584	1
42300	1.652006	0
42500	1.667501	2
42700	1.683068	0
42900	1.698708	0
43100	1.714420	1
43300	1.730204	0
43500	1.746061	1
43700	1.761989	0
43900	1.777991	0
44100	1.794064	0
44300	1.810210	0
44500	1.826428	0
44700	1.842719	0
44900	1.859082	0
45100	1.875517	0
45300	1.892024	0
45500	1.908604	0
45700	1.925256	1
45900	1.941981	0
46100	1.958778	0
46300	1.975647	0
46500	1.992588	0
46700	2.009602	74
46900	2.026688	2
47100	2.043846	0
47300	2.061077	0
47500	2.078380	0
47700	2.095756	2
47900	2.113204	0
48100	2.130724	0
48300	2.148316	0
48500	2.165981	0
48700	2.183718	0
48900	2.201527	0
49100	2.219409	0
49300	2.237363	1
49500	2.255389	0
49700	2.273488	2
49900	2.291659	0
50100	2.309903	0
50300	2.328218	0
50500	2.346606	0
50700	2.365067	1
50900	2.383599	0
51100	2.402204	0
51300	2.420882	0
51500	2.439631	0
51700	2.458453	0
51900	2.477348	0
52100	2.496314	0
52300	2.515353	0
52500	2.534465	0
52700	2.553648	0
52900	2.572904	0
53100	2.592233	2
53300	2.611633	1
53500	2.631106	1
53700	2.650651	0
53900	2.670269	0
54100	2.689959	0
54300	2.709721	0
54500	2.729556	0
54700	2.749463	1
54900	2.769442	0
55100	2.789494	0
55300	2.809617	0
55500	2.829814	0
55700	2.850082	1
55900	2.870423	0
56100	2.890836	0
56300	2.911322	0
56500	2.931880	0
56700	2.952510	0
56900	2.973212	0
57100	2.993987	0
57300	3.014835	0
57500	3.035754	0
57700	3.056746	0
57900	3.077810	0
58100	3.098947	0
58300	3.120155	0
58500	3.141437	0
58700	3.162790	0
58900	3.184216	0
59100	3.205714	0
59300	3.227284	0
59500	3.248927	0
59700	3.270642	0
59900	3.292430	0
60100	3.314290	0
60300	3.336222	0
60500	3.358226	0
60700	3.380303	0
60900	3.402452	0
61100	3.424673	0
61300	3.446967	1
61500	3.469333	0
61700	3.491772	0
61900	3.514282	0
62100	3.536865	0
62300	3.559521	0
62500	3.582248	0
62700	3.605048	0
62900	3.627921	0
63100	3.650865	0
63300	3.673883	0
63500	3.696972	5
63700	3.720134	0
63900	3.743368	0
64100	3.766674	0
64300	3.790053	0
64500	3.813504	0
64700	3.837027	0
64900	3.860623	0
65100	3.884290	0
65300	3.908031	0
65500	3.931843	0
65700	3.955728	0
65900	3.979686	1
66100	4.003715	0
66300	4.027817	1
66500	4.051992	1
66700	4.076238	0
66900	4.100557	0
67100	4.124948	1
67300	4.149412	0
67500	4.173948	0
67700	4.198556	0
67900	4.223237	0
68100	4.247989	0
68300	4.272815	0
68500	4.297712	0
68700	4.322682	1
68900	4.347724	0
69100	4.372839	0
69300	4.398026	0
69500	4.423285	0
69700	4.448616	1
69900	4.474020	0
70100	4.499496	0
70300	4.525045	0
70500	4.550666	0
70700	4.576359	0
70900	4.602124	0
71100	4.627962	0
71300	4.653872	0
71500	4.679855	0
71700	4.705910	0
71900	4.732037	0
72100	4.758236	0
72300	4.784508	0
72500	4.810852	0
72700	4.837269	0
72900	4.863757	0
73100	4.890319	1
73300	4.916952	0
73500	4.943658	0
73700	4.970436	0
73900	4.997286	0
74100	5.024209	0
74300	5.051204	0
74500	5.078271	0
74700	5.105411	0
74900	5.132623	0
75100	5.159908	0
75300	5.187264	0
75500	5.214693	1
75700	5.242195	0
75900	5.269768	1
76100	5.297414	0
76300	5.325133	0
76500	5.352923	0
76700	5.380786	1
76900	5.408722	1
77100	5.436729	0
77300	5.464809	0
77500	5.492962	0
77700	5.521186	0
77900	5.549483	0
78100	5.577853	0
78300	5.606294	0
78500	5.634808	1
78700	5.663394	1
78900	5.692053	1
79100	5.720784	0
79300	5.749587	0
79500	5.778463	0
79700	5.807411	0
79900	5.836431	0
80100	5.865524	1
80300	5.894688	0
80500	5.923926	0
80700	5.953235	0
80900	5.982617	0
81100	6.012071	0
81300	6.041598	0
81500	6.071197	0
81700	6.100868	0
81900	6.130612	0
82100	6.160427	0
82300	6.190316	0
82500	6.220276	0
82700	6.250309	0
82900	6.280414	0
83100	6.310592	0
83300	6.340841	0
83500	6.371164	1
83700	6.401558	0
83900	6.432025	0
84100	6.462564	0
84300	6.493176	0
84500	6.523859	0
84700	6.554615	0
84900	6.585444	0
85100	6.616345	0
85300	6.647318	0
85500	6.678363	0
85700	6.709481	0
85900	6.740671	0
86100	6.771933	0
86300	6.803268	0
86500	6.834675	0
86700	6.866155	0
86900	6.897706	0
87100	6.929331	0
87300	6.961027	0
87500	6.992796	0
87700	7.024637	1
87900	7.056550	1
88100	7.088536	0
88300	7.120594	0
88500	7.152724	0
88700	7.184927	1
88900	7.217202	0
89100	7.249549	1
89300	7.281969	0
89500	7.314461	0
89700	7.347025	0
89900	7.379662	0
90100	7.412371	0
90300	7.445152	0
90500	7.478006	0
90700	7.510932	0
90900	7.543930	0
91100	7.577001	1
91300	7.610144	0
91500	7.643359	0
91700	7.676646	0
91900	7.710006	0
92100	7.743439	0
92300	7.776943	0
92500	7.810520	0
92700	7.844169	0
92900	7.877891	0
93100	7.911685	0
93300	7.945551	0
93500	7.979490	0
93700	8.013501	0
93900	8.047584	0
94100	8.081739	0
94300	8.115967	0
94500	8.150267	0
94700	8.184640	0
94900	8.219085	0
95100	8.253602	1
95300	8.288191	1
95500	8.322853	0
95700	8.357587	0
95900	8.392394	0
96100	8.427273	0
96300	8.462224	0
96500	8.497247	0
96700	8.532343	0
96900	8.567511	0
97100	8.602752	0
97300	8.638065	0
97500	8.673450	0
97700	8.708907	1
97900	8.744437	0
98100	8.780039	0
98300	8.815713	0
98500	8.851460	0
98700	8.887279	0
98900	8.923171	0
99100	8.959134	0
99300	8.995170	0
99500	9.031279	0
99700	9.067460	0
99900	9.103713	0
100100	9.140038	0
100300	9.176436	0
100500	9.212906	0
100700	9.249448	0
100900	9.286063	0
101100	9.322750	0
101300	9.359509	0
101500	9.396341	0
101700	9.433245	0
101900	9.470221	1
102100	9.507270	0
102300	9.544391	0
102500	9.581584	0
102700	9.618850	0
102900	9.656188	0
103100	9.693598	0
103300	9.731081	0
103500	9.768636	0
103700	9.806263	0
103900	9.843963	0
104100	9.881735	0
104300	9.919579	0
104500	9.957495	0
104700	9.995484	2
104900	10.033546	0
105100	10.071679	0
105300	10.109885	0
105500	10.148163	0
105700	10.186514	0
105900	10.224937	0
106100	10.263432	0
106300	10.302000	0
106500	10.340640	0
106700	10.379352	0
106900	10.418136	0
107100	10.456993	0
107300	10.495922	0
107500	10.534924	0
107700	10.573998	0
107900	10.613144	0
108100	10.652362	0
108300	10.691653	0
108500	10.731016	0
108700	10.770452	0
108900	10.809960	0
109100	10.849540	1
109300	10.889192	0
109500	10.928917	0
109700	10.968714	0
109900	11.008584	6
110100	11.048525	0
110300	11.088540	0
110500	11.128626	0
110700	11.168785	0
110900	11.209016	0
111100	11.249319	0
111300	11.289695	0
111500	11.330143	0
111700	11.370664	0
111900	11.411256	0
112100	11.451921	0
112300	11.492659	0
112500	11.533468	0
112700	11.574351	0
112900	11.615305	0
113100	11.656332	1
113300	11.697431	0
113500	11.738602	0
113700	11.779846	1
113900	11.821162	1
114100	11.862550	2
114300	11.904011	1
114500	11.945544	2
114700	11.987149	44680
114900	12.028827	443
115100	12.070577	0
115300	12.112399	3
115500	12.154294	1
115700	12.196261	3
115900	12.238300	3
116100	12.280412	1
116300	12.322595	1
116500	12.364852	1
116700	12.407180	1
116900	12.449581	2
117100	12.492055	6
117300	12.534600	4
117500	12.577218	1
117700	12.619908	0
117900	12.662671	3
118100	12.705506	2
118300	12.748413	2
118500	12.791393	2
118700	12.834445	3
118900	12.877569	10
119100	12.920765	4
119300	12.964034	4
119500	13.007375	67380
119700	13.050789	29
119900	13.094275	3
120100	13.137833	2
120300	13.181463	10
120500	13.225166	2
120700	13.268941	3
120900	13.312789	6
121100	13.356709	4
121300	13.400701	4
121500	13.444765	3
121700	13.488902	4
121900	13.533111	11
122100	13.577393	5
122300	13.621747	2
122500	13.666173	1
122700	13.710671	0
122900	13.755242	2
123100	13.799885	2
123300	13.844601	1
123500	13.889388	0
123700	13.934248	1
123900	13.979181	0
124100	14.024186	13931
124300	14.069263	8
124500	14.114412	5
124700	14.159634	2
124900	14.204928	4
125100	14.250294	2
125300	14.295733	0
125500	14.341244	0
125700	14.386827	1
125900	14.432483	3
126100	14.478211	2
126300	14.524011	1
126500	14.569884	2
126700	14.615829	17
126900	14.661846	2
127100	14.707936	1
127300	14.754098	0
127500	14.800332	1
127700	14.846639	0
127900	14.893018	1
128100	14.939469	1
128300	14.985993	28
128500	15.032589	18187
128700	15.079257	63
128900	15.125998	17
129100	15.172811	7
129300	15.219696	7
129500	15.266654	6
129700	15.313684	5
129900	15.360786	3
130100	15.407961	5
130300	15.455207	3
130500	15.502527	0
130700	15.549918	2
130900	15.597382	3
131100	15.644918	10
131300	15.692527	4
131500	15.740208	0
131700	15.787961	0
131900	15.835787	14
132100	15.883684	3
132300	15.931655	8
132500	15.979697	198906
132700	16.027812	2945
132900	16.075999	15
133100	16.124259	10
133300	16.172591	3
133500	16.220995	2
133700	16.269471	1
133900	16.318020	1
134100	16.366641	4
134300	16.415335	1
134500	16.464100	3
134700	16.512939	1
134900	16.561849	2
135100	16.610832	2
135300	16.659887	2
135500	16.709014	3
135700	16.758214	0
135900	16.807486	0
136100	16.856831	9
136300	16.906247	3
136500	16.955737	8
136700	17.005298	109260
136900	17.054932	176
137100	17.104638	33
137300	17.154416	13
137500	17.204267	12
137700	17.254190	9
137900	17.304185	7
138100	17.354253	5
138300	17.404393	8
138500	17.454605	2
138700	17.504890	3
138900	17.555247	1
139100	17.605677	3
139300	17.656178	0
139500	17.706752	27
139700	17.757399	7
139900	17.808117	2
140100	17.858908	0
140300	17.909772	2
140500	17.960707	2
140700	18.011715	452
140900	18.062795	0
141100	18.113948	1
141300	18.165173	3
141500	18.216470	0
141700	18.267840	0
141900	18.319282	2
142100	18.370796	0
142300	18.422383	0
142500	18.474042	0
142700	18.525773	0
142900	18.577577	1
143100	18.629452	0
143300	18.681401	1
143500	18.733421	0
143700	18.785514	1
143900	18.837679	2
144100	18.889917	2
144300	18.942227	2
144500	18.994609	9090
144700	19.047064	88
144900	19.099590	2
145100	19.152190	1
145300	19.204861	1
145500	19.257605	1
145700	19.310421	0
145900	19.363310	0
146100	19.416270	1
146300	19.469304	1
146500	19.522409	0
146700	19.575587	0
146900	19.628837	0
147100	19.682160	1
147300	19.735554	2
147500	19.789021	0
147700	19.842561	2
147900	19.896173	2
148100	19.949857	3
148300	20.003613	1
148500	20.057442	0
148700	20.111343	0
148900	20.165317	0
149100	20.219362	0
149300	20.273480	0
149500	20.327671	0
149700	20.381934	0
149900	20.436269	0
150100	20.490676	1
150300	20.545156	0
150500	20.599708	0
150700	20.654332	2
150900	20.709029	0
151100	20.763798	0
151300	20.818639	0
151500	20.873553	0
151700	20.928539	1
151900	20.983597	0
152100	21.038728	1
152300	21.093931	2
152500	21.149206	0
152700	21.204554	0
152900	21.259974	0
153100	21.315466	0
153300	21.371031	0
153500	21.426668	0
153700	21.482377	0
153900	21.538159	0
154100	21.594013	0
154300	21.649939	1
154500	21.705938	1
154700	21.762009	1
154900	21.818152	0
155100	21.874367	0
155300	21.930655	0
155500	21.987016	2
155700	22.043448	0
155900	22.099953	0
156100	22.156530	2
156300	22.213180	0
156500	22.269902	0
156700	22.326696	0
156900	22.383563	0
157100	22.440501	0
157300	22.497513	0
157500	22.554596	0
157700	22.611752	0
157900	22.668980	1
158100	22.726281	0
158300	22.783654	0
158500	22.841099	0
158700	22.898616	0
158900	22.956206	4
159100	23.013868	83
159300	23.071603	0
159500	23.129410	2
159700	23.187289	0
159900	23.245240	0
160100	23.303264	0
160300	23.361360	0
160500	23.419528	3
160700	23.477769	0
160900	23.536082	0
161100	23.594468	0
161300	23.652926	0
161500	23.711456	0
161700	23.770058	0
161900	23.828733	6
162100	23.887480	1
162300	23.946299	227
162500	24.005191	158419
162700	24.064155	104
162900	24.123191	16
163100	24.182300	18
163300	24.241481	13
163500	24.300735	8
163700	24.360060	5
163900	24.419458	6
164100	24.478929	3
164300	24.538471	9
164500	24.598086	5
164700	24.657774	4
164900	24.717533	5
165100	24.777365	26
165300	24.837270	25
165500	24.897246	4
165700	24.957295	94
165900	25.017417	205632
166100	25.077610	518
166300	25.137876	120
166500	25.198215	55
166700	25.258625	28
166900	25.319108	16
167100	25.379663	16
167300	25.440291	7
167500	25.500991	10
167700	25.561763	8
167900	25.622608	3
168100	25.683525	4
168300	25.744514	6
168500	25.805576	12
168700	25.866709	1
168900	25.927916	2
169100	25.989194	149757
169300	26.050545	9183
169500	26.111968	1799
169700	26.173464	736
169900	26.235032	356
170100	26.296672	202
170300	26.358384	138
170500	26.420169	113
170700	26.482026	65
170900	26.543956	64
171100	26.605958	38
171300	26.668032	43
171500	26.730178	27
171700	26.792397	21
171900	26.854688	26
172100	26.917052	24
172300	26.979488	3161
172500	27.041996	4662
172700	27.104576	72
172900	27.167229	26
173100	27.229954	15
173300	27.292752	13
173500	27.355621	5
173700	27.418564	10
173900	27.481578	8
174100	27.544665	3
174300	27.607824	4
174500	27.671055	7
174700	27.734359	5
174900	27.797735	4
175100	27.861183	5
175300	27.924704	4
175500	27.988297	195
175700	28.051963	113
175900	28.115700	3
176100	28.179510	3
176300	28.243393	2
176500	28.307347	1
176700	28.371374	2
176900	28.435474	1
177100	28.499645	1
177300	28.563889	1
177500	28.628206	0
177700	28.692594	1
177900	28.757055	4
178100	28.821589	0
178300	28.886194	3
178500	28.950872	64
178700	29.015623	1310
178900	29.080445	19
179100	29.145340	5
179300	29.210308	2
179500	29.275347	4
179700	29.340459	1
179900	29.405643	0
180100	29.470900	2
180300	29.536229	0
180500	29.601630	0
180700	29.667104	2
180900	29.732650	3
181100	29.798268	2
181300	29.863958	1
181500	29.929721	2
181700	29.995557	211
181900	30.061464	7
182100	30.127444	2
182300	30.193496	1
182500	30.259621	1
182700	30.325818	1
182900	30.392087	1
183100	30.458428	0
183300	30.524842	2
183500	30.591328	1
183700	30.657887	1
183900	30.724518	1
184100	30.791221	1
184300	30.857996	2
184500	30.924844	0
184700	30.991764	1235
184900	31.058757	179
185100	31.125822	2
185300	31.192959	1
185500	31.260168	0
185700	31.327450	1
185900	31.394804	1
186100	31.462231	0
186300	31.529729	0
186500	31.597300	0
186700	31.664944	0
186900	31.732660	2
187100	31.800448	1
187300	31.868308	0
187500	31.936241	118
187700	32.004246	5433
187900	32.072323	0
188100	32.140473	2
188300	32.208695	1
188500	32.276989	2
188700	32.345356	0
188900	32.413795	0
189100	32.482306	2
189300	32.550890	0
189500	32.619546	2
189700	32.688275	0
189900	32.757075	0
190100	32.825948	2
190300	32.894894	1
190500	32.963911	763
190700	33.033001	421
190900	33.102163	0
191100	33.171398	0
191300	33.240705	0
191500	33.310084	1
191700	33.379536	0
191900	33.449060	0
192100	33.518656	1
192300	33.588325	0
192500	33.658066	1
192700	33.727879	0
192900	33.797765	0
193100	33.867723	1
193300	33.937753	22
193500	34.007855	94
193700	34.078030	0
193900	34.148278	0
194100	34.218597	0
194300	34.288989	0
194500	34.359453	1
194700	34.429990	0
194900	34.500599	0
195100	34.571280	1
195300	34.642033	0
195500	34.712859	8
195700	34.783757	2
195900	34.854728	1
196100	34.925771	2679
196300	34.996886	428493
196500	35.068073	2091
196700	35.139333	672
196900	35.210665	273
197100	35.282070	139
197300	35.353547	55
197500	35.425096	35
197700	35.496717	26
197900	35.568411	21
198100	35.640177	7
198300	35.712016	7
198500	35.783926	7
198700	35.855910	6
198900	35.927965	30
199100	36.000093	29694
199300	36.072293	63
199500	36.144565	10
199700	36.216910	4
199900	36.289327	7
200100	36.361816	3
200300	36.434378	3
200500	36.507012	7
200700	36.579719	1
200900	36.652497	0
201100	36.725348	8
201300	36.798272	2
201500	36.871268	5
201700	36.944336	135206
201900	37.017476	14314
202100	37.090689	459
202300	37.163974	147
202500	37.237331	52
202700	37.310761	37
202900	37.384263	23
203100	37.457837	23
203300	37.531484	13
203500	37.605203	6
203700	37.678994	7
203900	37.752857	5
204100	37.826793	3
204300	37.900802	2
204500	37.974882	1273
204700	38.049035	4289
204900	38.123261	7
205100	38.197558	3
205300	38.271928	3
205500	38.346370	2
205700	38.420885	1
205900	38.495472	1
206100	38.570131	4
206300	38.644863	1
206500	38.719667	0
206700	38.794543	1
206900	38.869491	0
207100	38.944512	21
207300	39.019605	3259
207500	39.094771	172
