# Binning: 200 channels
# Deadtime Correction: on
Channel	m/z	Intensity
100	0.000406	1
300	0.000687	11
500	0.001042	0
700	0.001470	0
900	0.001972	0
1100	0.002548	0
1300	0.003197	4
1500	0.003919	7
1700	0.004716	3
1900	0.005585	1
2100	0.006529	0
2300	0.007546	0
2500	0.008636	0
2700	0.009800	0
2900	0.011038	0
3100	0.012349	0
3300	0.013734	0
3500	0.015192	0
3700	0.016724	0
3900	0.018330	0
4100	0.020009	0
4300	0.021761	0
4500	0.023587	0
4700	0.025487	0
4900	0.027461	0
5100	0.029507	1
5300	0.031628	0
5500	0.033822	0
5700	0.036090	0
5900	0.038431	0
6100	0.040846	0
6300	0.043334	0
6500	0.045896	0
6700	0.048531	1
6900	0.051240	0
7100	0.054023	0
7300	0.056879	0
7500	0.059809	0
7700	0.062812	0
7900	0.065889	0
8100	0.069040	0
8300	0.072264	0
8500	0.075561	1
8700	0.078933	0
8900	0.082377	0
9100	0.085896	0
9300	0.089488	0
9500	0.093153	0
9700	0.096892	0
9900	0.100705	0
10100	0.104591	0
10300	0.108551	0
10500	0.112584	0
10700	0.116691	0
10900	0.120871	0
11100	0.125125	0
11300	0.129453	0
11500	0.133854	0
11700	0.138329	0
11900	0.142877	0
12100	0.147499	0
12300	0.152195	0
12500	0.156964	0
12700	0.161806	0
12900	0.166723	0
13100	0.171712	0
13300	0.176776	0
13500	0.181913	0
13700	0.187123	0
13900	0.192407	0
14100	0.197765	0
14300	0.203196	0
14500	0.208701	0
14700	0.214279	0
14900	0.219931	0
15100	0.225656	0
15300	0.231455	0
15500	0.237328	0
15700	0.243274	0
15900	0.249294	0
16100	0.255387	0
16300	0.261554	0
16500	0.267795	0
16700	0.274109	0
16900	0.280496	0
17100	0.286957	0
17300	0.293492	0
17500	0.300101	0
17700	0.306782	0
17900	0.313538	0
18100	0.320367	0
18300	0.327270	0
18500	0.334246	0
18700	0.341296	0
18900	0.348419	0
19100	0.355616	0
19300	0.362886	0
19500	0.370230	0
19700	0.377648	0
19900	0.385139	0
20100	0.392704	0
20300	0.400342	0
20500	0.408054	0
20700	0.415839	0
20900	0.423698	0
21100	0.431631	0
21300	0.439637	0
21500	0.447717	0
21700	0.455870	0
21900	0.464097	0
22100	0.472398	0
22300	0.480772	0
22500	0.489219	0
22700	0.497741	0
22900	0.506335	0
23100	0.515004	0
23300	0.523745	0
23500	0.532561	0
23700	0.541450	0
23900	0.550413	0
24100	0.559449	0
24300	0.568558	0
24500	0.577742	0
24700	0.586999	0
24900	0.596329	0
25100	0.605733	0
25300	0.615211	0
25500	0.624762	0
25700	0.634387	0
25900	0.644085	0
26100	0.653857	0
26300	0.663702	0
26500	0.673621	0
26700	0.683614	0
26900	0.693680	1
27100	0.703820	0
27300	0.714033	0
27500	0.724320	0
27700	0.734681	0
27900	0.745115	0
28100	0.755622	0
28300	0.766203	0
28500	0.776858	0
28700	0.787586	0
28900	0.798388	0
29100	0.809264	0
29300	0.820213	0
29500	0.831235	0
29700	0.842331	0
29900	0.853501	0
30100	0.864745	0
30300	0.876061	0
30500	0.887452	0
30700	0.898916	0
30900	0.910453	0
31100	0.922065	16
31300	0.933749	0
31500	0.945508	1
31700	0.957340	1
31900	0.969245	0
32100	0.981224	10
32300	0.993277	15
32500	1.005403	74184
32700	1.017603	406
32900	1.029876	9
33100	1.042223	7
33300	1.054643	2
33500	1.067137	2
33700	1.079705	5
33900	1.092346	1
34100	1.105061	1
34300	1.117849	0
34500	1.130711	0
34700	1.143646	0
34900	1.156655	0
35100	1.169738	0
35300	1.182894	0
35500	1.196124	0
35700	1.209427	0
35900	1.222804	0
36100	1.236254	0
36300	1.249778	0
36500	1.263376	0
36700	1.277047	0
36900	1.290792	0
37100	1.304610	0
37300	1.318502	0
37500	1.332468	0
37700	1.346507	1
37900	1.360619	0
38100	1.374805	0
38300	1.389065	0
38500	1.403398	0
38700	1.417805	0
38900	1.432286	0
39100	1.446840	0
39300	1.461467	0
39500	1.476168	0
39700	1.490943	0
39900	1.505791	0
40100	1.520713	0
40300	1.535709	0
40500	1.550778	0
40700	1.565920	0
40900	1.581136	0
41100	1.596426	0
41300	1.611789	0
41500	1.627226	0
41700	1.642737	0
41900	1.658321	0
42100	1.673978	0
42300	1.689709	0
42500	1.705514	0
42700	1.721392	0
42900	1.737344	0
43100	1.753370	0
43300	1.769469	0
43500	1.785641	0
43700	1.801888	0
43900	1.818207	0
44100	1.834601	0
44300	1.851067	0
44500	1.867608	0
44700	1.884222	0
44900	1.900909	0
45100	1.917671	0
45300	1.934505	0
45500	1.951414	0
45700	1.968395	0
45900	1.985451	0
46100	2.002580	0
46300	2.019782	5
46500	2.037059	0
46700	2.054408	1
46900	2.071832	0
47100	2.089328	0
47300	2.106899	0
47500	2.124543	0
47700	2.142260	0
47900	2.160052	0
48100	2.177916	0
48300	2.195855	0
48500	2.213866	0
48700	2.231952	0
48900	2.250111	0
49100	2.268343	0
49300	2.286650	0
49500	2.305029	0
49700	2.323483	0
49900	2.342009	0
50100	2.360610	0
50300	2.379284	0
50500	2.398031	0
50700	2.416853	0
50900	2.435747	0
51100	2.454716	0
51300	2.473757	0
51500	2.492873	0
51700	2.512062	0
51900	2.531324	0
52100	2.550661	0
52300	2.570070	0
52500	2.589554	0
52700	2.609110	0
52900	2.628741	0
53100	2.648445	0
53300	2.668222	0
53500	2.688073	0
53700	2.707998	0
53900	2.727996	0
54100	2.748068	0
54300	2.768214	0
54500	2.788433	0
54700	2.808725	0
54900	2.829091	0
55100	2.849531	0
55300	2.870044	0
55500	2.890631	0
55700	2.911292	0
55900	2.932026	0
56100	2.952833	0
56300	2.973714	0
56500	2.994669	0
56700	3.015697	0
56900	3.036799	0
57100	3.057975	0
57300	3.079224	0
57500	3.100546	0
57700	3.121942	0
57900	3.143412	0
58100	3.164955	0
58300	3.186572	0
58500	3.208263	0
58700	3.230027	0
58900	3.251864	0
59100	3.273775	0
59300	3.295760	0
59500	3.317818	0
59700	3.339950	0
59900	3.362155	0
60100	3.384434	0
60300	3.406787	0
60500	3.429213	0
60700	3.451713	0
60900	3.474286	0
61100	3.496933	0
61300	3.519653	0
61500	3.542447	0
61700	3.565315	0
61900	3.588256	0
62100	3.611271	0
62300	3.634359	0
62500	3.657521	0
62700	3.680756	0
62900	3.704065	0
63100	3.727448	0
63300	3.750904	0
63500	3.774434	0
63700	3.798037	0
63900	3.821714	0
64100	3.845464	0
64300	3.869288	0
64500	3.893186	0
64700	3.917157	0
64900	3.941201	0
65100	3.965320	0
65300	3.989512	0
65500	4.013777	0
65700	4.038116	0
65900	4.062528	0
66100	4.087015	0
66300	4.111574	0
66500	4.136208	0
66700	4.160914	0
66900	4.185695	0
67100	4.210549	0
67300	4.235476	0
67500	4.260477	0
67700	4.285552	0
67900	4.310700	0
68100	4.335922	0
68300	4.361218	0
68500	4.386587	0
68700	4.412029	0
68900	4.437545	0
69100	4.463135	0
69300	4.488798	0
69500	4.514535	0
69700	4.540345	0
69900	4.566229	0
70100	4.592187	0
70300	4.618218	0
70500	4.644323	0
70700	4.670501	0
70900	4.696753	0
71100	4.723078	0
71300	4.749477	0
71500	4.775950	0
71700	4.802496	0
71900	4.829115	0
72100	4.855809	0
72300	4.882576	0
72500	4.909416	0
72700	4.936330	0
72900	4.963317	0
73100	4.990379	0
73300	5.017513	0
73500	5.044722	0
73700	5.072003	0
73900	5.099359	0
74100	5.126788	0
74300	5.154290	0
74500	5.181866	0
74700	5.209516	0
74900	5.237239	0
75100	5.265036	0
75300	5.292907	0
75500	5.320850	0
75700	5.348868	0
75900	5.376959	0
76100	5.405124	0
76300	5.433362	0
76500	5.461674	0
76700	5.490059	0
76900	5.518518	0
77100	5.547051	0
77300	5.575657	0
77500	5.604337	0
77700	5.633090	0
77900	5.661917	0
78100	5.690817	0
78300	5.719791	0
78500	5.748838	0
78700	5.777960	0
78900	5.807154	0
79100	5.836423	0
79300	5.865764	0
79500	5.895180	0
79700	5.924669	0
79900	5.954231	0
80100	5.983867	0
80300	6.013577	0
80500	6.043360	0
80700	6.073217	0
80900	6.103147	0
81100	6.133151	0
81300	6.163229	0
81500	6.193380	0
81700	6.223605	0
81900	6.253903	0
82100	6.284275	0
82300	6.314720	0
82500	6.345239	0
82700	6.375832	0
82900	6.406498	0
83100	6.437237	0
83300	6.468051	0
83500	6.498937	0
83700	6.529898	0
83900	6.560932	0
84100	6.592039	0
84300	6.623220	0
84500	6.654475	0
84700	6.685803	0
84900	6.717205	0
85100	6.748680	0
85300	6.780229	0
85500	6.811852	0
85700	6.843548	0
85900	6.875318	0
86100	6.907161	0
86300	6.939078	0
86500	6.971068	0
86700	7.003132	0
86900	7.035270	0
87100	7.067481	0
87300	7.099765	0
87500	7.132124	0
87700	7.164555	0
87900	7.197061	0
88100	7.229640	0
88300	7.262292	0
88500	7.295018	0
88700	7.327818	0
88900	7.360691	0
89100	7.393638	0
89300	7.426658	0
89500	7.459752	0
89700	7.492920	1
89900	7.526161	0
90100	7.559476	0
90300	7.592864	0
90500	7.626326	0
90700	7.659861	0
90900	7.693470	0
91100	7.727153	0
91300	7.760909	0
91500	7.794738	0
91700	7.828641	0
91900	7.862618	0
92100	7.896669	0
92300	7.930793	0
92500	7.964990	0
92700	7.999261	0
92900	8.033606	0
93100	8.068024	0
93300	8.102516	0
93500	8.137081	0
93700	8.171720	0
93900	8.206433	0
94100	8.241219	0
94300	8.276078	0
94500	8.311012	0
94700	8.346018	0
94900	8.381099	0
95100	8.416253	0
95300	8.451480	0
95500	8.486781	0
95700	8.522156	0
95900	8.557604	0
96100	8.593126	0
96300	8.628721	0
96500	8.664390	0
96700	8.700133	0
96900	8.735949	0
97100	8.771839	0
97300	8.807802	0
97500	8.843839	0
97700	8.879949	0
97900	8.916133	0
98100	8.952390	0
98300	8.988721	0
98500	9.025126	0
98700	9.061604	0
98900	9.098156	0
99100	9.134782	0
99300	9.171480	0
99500	9.208253	0
99700	9.245099	0
99900	9.282019	0
100100	9.319012	0
100300	9.356079	0
100500	9.393219	0
100700	9.430433	0
100900	9.467720	0
101100	9.505082	0
101300	9.542516	0
101500	9.580024	0
101700	9.617606	0
101900	9.655262	0
102100	9.692990	0
102300	9.730793	0
102500	9.768669	0
102700	9.806619	0
102900	9.844642	0
103100	9.882739	0
103300	9.920909	0
103500	9.959153	0
103700	9.997471	0
103900	10.035862	0
104100	10.074326	0
104300	10.112864	0
104500	10.151476	0
104700	10.190162	0
104900	10.228920	0
105100	10.267753	0
105300	10.306659	0
105500	10.345639	0
105700	10.384692	0
105900	10.423819	0
106100	10.463019	0
106300	10.502293	0
106500	10.541640	0
106700	10.581062	0
106900	10.620556	0
107100	10.660124	1
107300	10.699766	0
107500	10.739482	1
107700	10.779270	0
107900	10.819133	0
108100	10.859069	0
108300	10.899079	0
108500	10.939162	0
108700	10.979319	0
108900	11.019549	0
109100	11.059853	0
109300	11.100230	0
109500	11.140681	0
109700	11.181206	0
109900	11.221804	0
110100	11.262476	0
110300	11.303221	0
110500	11.344040	0
110700	11.384933	0
110900	11.425899	0
111100	11.466939	0
111300	11.508052	0
111500	11.549239	0
111700	11.590499	0
111900	11.631833	0
112100	11.673240	0
112300	11.714721	0
112500	11.756276	0
112700	11.797904	0
112900	11.839606	1
113100	11.881381	0
113300	11.923230	3
113500	11.965153	13
113700	12.007149	14240
113900	12.049218	8
114100	12.091362	0
114300	12.133578	0
114500	12.175869	0
114700	12.218233	0
114900	12.260670	0
115100	12.303181	0
115300	12.345766	0
115500	12.388424	1
115700	12.431156	1
115900	12.473961	0
116100	12.516840	0
116300	12.559792	0
116500	12.602819	0
116700	12.645918	1
116900	12.689091	4
117100	12.732338	0
117300	12.775658	0
117500	12.819052	0
117700	12.862520	1
117900	12.906061	0
118100	12.949676	1
118300	12.993364	11590
118500	13.037126	263
118700	13.080961	5
118900	13.124870	0
119100	13.168852	0
119300	13.212908	0
119500	13.257038	0
119700	13.301241	0
119900	13.345518	0
120100	13.389868	0
120300	13.434292	1
120500	13.478790	0
120700	13.523361	4
120900	13.568005	2
121100	13.612723	0
121300	13.657515	0
121500	13.702381	0
121700	13.747319	0
121900	13.792332	0
122100	13.837418	0
122300	13.882578	0
122500	13.927811	0
122700	13.973118	0
122900	14.018498	1257
123100	14.063952	2
123300	14.109479	1
123500	14.155080	1
123700	14.200755	0
123900	14.246503	0
124100	14.292325	0
124300	14.338220	0
124500	14.384189	0
124700	14.430232	0
124900	14.476348	0
125100	14.522537	0
125300	14.568800	4
125500	14.615137	3
125700	14.661547	1
125900	14.708031	0
126100	14.754589	0
126300	14.801220	0
126500	14.847925	0
126700	14.894703	0
126900	14.941554	0
127100	14.988480	8
127300	15.035479	2350
127500	15.082551	4
127700	15.129697	1
127900	15.176917	0
128100	15.224210	1
128300	15.271577	0
128500	15.319017	0
128700	15.366531	0
128900	15.414118	1
129100	15.461779	0
129300	15.509514	0
129500	15.557322	0
129700	15.605204	0
129900	15.653159	10
130100	15.701188	2
130300	15.749291	3
130500	15.797467	0
130700	15.845716	1
130900	15.894040	6
131100	15.942436	7
131300	15.990907	27063
131500	16.039450	103
131700	16.088068	3
131900	16.136759	0
132100	16.185524	1
132300	16.234362	1
132500	16.283274	0
132700	16.332259	0
132900	16.381318	0
133100	16.430450	1
133300	16.479656	0
133500	16.528936	0
133700	16.578289	0
133900	16.627716	1
134100	16.677216	1
134300	16.726790	1
134500	16.776437	0
134700	16.826158	0
134900	16.875953	0
135100	16.925821	4
135300	16.975763	1786
135500	17.025778	10898
135700	17.075867	4
135900	17.126030	1
136100	17.176266	0
136300	17.226575	0
136500	17.276958	0
136700	17.327415	1
136900	17.377945	1
137100	17.428549	0
137300	17.479227	0
137500	17.529978	2
137700	17.580802	0
137900	17.631701	0
138100	17.682672	5
138300	17.733718	0
138500	17.784837	0
138700	17.836029	0
138900	17.887295	0
139100	17.938635	0
139300	17.990048	51
139500	18.041535	1
139700	18.093095	0
139900	18.144729	0
140100	18.196436	0
140300	18.248217	1
140500	18.300072	0
140700	18.352000	0
140900	18.404002	0
141100	18.456077	0
141300	18.508226	0
141500	18.560448	0
141700	18.612744	0
141900	18.665114	0
142100	18.717557	0
142300	18.770074	0
142500	18.822664	0
142700	18.875328	0
142900	18.928066	0
143100	18.980877	1740
143300	19.033761	88
143500	19.086719	1
143700	19.139751	0
143900	19.192856	0
144100	19.246035	1
144300	19.299288	1
144500	19.352614	0
144700	19.406013	0
144900	19.459486	1
145100	19.513033	0
145300	19.566653	0
145500	19.620347	0
145700	19.674115	0
145900	19.727956	1
146100	19.781870	0
146300	19.835859	0
146500	19.889920	0
146700	19.944056	0
146900	19.998264	1
147100	20.052547	0
147300	20.106903	0
147500	20.161332	0
147700	20.215836	0
147900	20.270412	0
148100	20.325063	0
148300	20.379787	0
148500	20.434584	0
148700	20.489455	0
148900	20.544400	0
149100	20.599418	0
149300	20.654509	0
149500	20.709675	0
149700	20.764914	0
149900	20.820226	0
150100	20.875612	0
150300	20.931072	0
150500	20.986605	0
150700	21.042212	0
150900	21.097892	0
151100	21.153646	0
151300	21.209473	0
151500	21.265374	0
151700	21.321349	0
151900	21.377397	0
152100	21.433519	1
152300	21.489714	0
152500	21.545983	0
152700	21.602325	0
152900	21.658741	0
153100	21.715231	1
153300	21.771794	0
153500	21.828431	1
153700	21.885141	0
153900	21.941925	0
154100	21.998782	1
154300	22.055713	1
154500	22.112718	1
154700	22.169796	0
154900	22.226948	0
155100	22.284173	0
155300	22.341472	0
155500	22.398844	0
155700	22.456290	0
155900	22.513810	0
156100	22.571403	0
156300	22.629070	0
156500	22.686810	0
156700	22.744624	0
156900	22.802511	0
157100	22.860472	0
157300	22.918507	0
157500	22.976615	18
157700	23.034797	2
157900	23.093052	0
158100	23.151381	0
158300	23.209783	0
158500	23.268259	0
158700	23.326809	0
158900	23.385432	0
159100	23.444129	0
159300	23.502899	0
159500	23.561743	11
159700	23.620660	0
159900	23.679651	2
160100	23.738716	7
160300	23.797854	0
160500	23.857066	0
160700	23.916351	17
160900	23.975710	65665
161100	24.035142	8360
161300	24.094648	20
161500	24.154228	9
161700	24.213881	7
161900	24.273608	3
162100	24.333408	4
162300	24.393282	2
162500	24.453229	4
162700	24.513250	4
162900	24.573345	23
163100	24.633513	3
163300	24.693755	1
163500	24.754070	5
163700	24.814459	3
163900	24.874921	12
164100	24.935457	19
164300	24.996067	98219
164500	25.056750	600
164700	25.117507	35
164900	25.178337	11
165100	25.239241	6
165300	25.300218	2
165500	25.361269	6
165700	25.422394	3
165900	25.483592	2
166100	25.544864	9
166300	25.606209	3
166500	25.667628	5
166700	25.729120	4
166900	25.790686	0
167100	25.852326	3
167300	25.914039	9
167500	25.975826	44093
167700	26.037686	20285
167900	26.099620	387
168100	26.161627	112
168300	26.223708	53
168500	26.285863	24
168700	26.348091	23
168900	26.410392	12
169100	26.472768	10
169300	26.535217	14
169500	26.597739	1
169700	26.660335	3
169900	26.723005	6
170100	26.785748	2
170300	26.848564	3
170500	26.911455	3
170700	26.974418	502
170900	27.037456	929
171100	27.100567	7
171300	27.163751	1
171500	27.227010	3
171700	27.290341	3
171900	27.353747	3
172100	27.417225	0
172300	27.480778	1
172500	27.544404	0
172700	27.608103	2
172900	27.671876	2
173100	27.735723	0
173300	27.799643	2
173500	27.863637	1
173700	27.927705	0
173900	27.991846	60
174100	28.056060	9
174300	28.120348	1
174500	28.184710	0
174700	28.249145	0
174900	28.313654	0
175100	28.378237	0
175300	28.442892	0
175500	28.507622	0
175700	28.572425	0
175900	28.637302	0
176100	28.702252	1
176300	28.767276	0
176500	28.832373	0
176700	28.897544	2
176900	28.962789	18
177100	29.028107	78
177300	29.093499	1
177500	29.158964	0
177700	29.224503	0
177900	29.290115	1
178100	29.355801	0
178300	29.421561	1
178500	29.487394	1
178700	29.553301	0
178900	29.619281	0
179100	29.685335	0
179300	29.751462	1
179500	29.817663	2
179700	29.883938	0
179900	29.950286	0
180100	30.016707	24
180300	30.083203	0
180500	30.149771	1
180700	30.216414	1
180900	30.283130	1
181100	30.349919	0
181300	30.416782	1
181500	30.483719	1
181700	30.550729	1
181900	30.617813	0
182100	30.684971	1
182300	30.752202	0
182500	30.819506	0
182700	30.886884	0
182900	30.954336	0
183100	31.021861	155
183300	31.089460	1
183500	31.157132	0
183700	31.224878	0
183900	31.292698	0
184100	31.360591	0
184300	31.428558	0
184500	31.496598	0
184700	31.564712	0
184900	31.632899	0
185100	31.701160	0
185300	31.769495	0
185500	31.837903	1
185700	31.906384	0
185900	31.974940	737
186100	32.043569	3
186300	32.112271	0
186500	32.181047	0
186700	32.249896	0
186900	32.318820	0
187100	32.387816	0
187300	32.456886	0
187500	32.526030	0
187700	32.595248	0
187900	32.664539	0
188100	32.733903	0
188300	32.803341	0
188500	32.872853	0
188700	32.942438	49
188900	33.012097	217
189100	33.081829	0
189300	33.151635	0
189500	33.221515	0
189700	33.291468	0
189900	33.361495	0
190100	33.431595	0
190300	33.501769	0
190500	33.572016	0
190700	33.642337	0
190900	33.712732	0
191100	33.783200	1
191300	33.853741	0
191500	33.924357	0
191700	33.995045	19
191900	34.065808	0
192100	34.136644	0
192300	34.207553	0
192500	34.278536	1
192700	34.349593	0
192900	34.420723	9
193100	34.491927	10
193300	34.563205	2
193500	34.634556	5
193700	34.705980	2
193900	34.777478	0
194100	34.849050	23
194300	34.920695	247
194500	34.992414	68699
194700	35.064206	203
194900	35.136072	47
195100	35.208012	16
195300	35.280025	12
195500	35.352111	3
195700	35.424272	6
195900	35.496506	7
196100	35.568813	3
196300	35.641194	2
196500	35.713648	0
196700	35.786176	2
196900	35.858778	2
197100	35.931453	21
197300	36.004202	21980
197500	36.077025	40
197700	36.149921	6
197900	36.222890	3
198100	36.295933	4
198300	36.369050	4
198500	36.442240	7
198700	36.515504	1
198900	36.588841	2
199100	36.662252	3
199300	36.735737	2
199500	36.809295	3
199700	36.882926	7
199900	36.956632	21659
200100	37.030410	4185
200300	37.104263	30
200500	37.178189	17
200700	37.252188	2
200900	37.326261	4
201100	37.400408	5
201300	37.474628	5
201500	37.548922	4
201700	37.623289	4
201900	37.697730	0
202100	37.772245	3
202300	37.846833	1
202500	37.921495	1
202700	37.996230	1441
202900	38.071039	7
203100	38.145921	3
203300	38.220877	0
203500	38.295907	0
203700	38.371010	0
203900	38.446186	0
204100	38.521437	3
204300	38.596760	2
204500	38.672158	0
204700	38.747629	1
204900	38.823173	0
205100	38.898791	0
205300	38.974483	139
205500	39.050248	523
205700	39.126087	1
205900	39.201999	0
206100	39.277985	0
206300	39.354045	0
206500	39.430178	0
206700	39.506384	0
206900	39.582665	4
207100	39.659018	0
207300	39.735446	1
207500	39.811947	0
207700	39.888521	2
207900	39.965169	2603
208100	40.041891	529
208300	40.118686	0
