# Binning: 200 channels
# Deadtime Correction: on
Channel	m/z	Intensity
100	0.000274	0
300	0.000510	50
500	0.000817	4
700	0.001197	0
900	0.001650	0
1100	0.002174	0
1300	0.002771	9
1500	0.003441	20
1700	0.004182	10
1900	0.004996	1
2100	0.005883	0
2300	0.006841	0
2500	0.007872	2
2700	0.008975	1
2900	0.010151	1
3100	0.011399	3
3300	0.012719	0
3500	0.014112	1
3700	0.015577	1
3900	0.017114	0
4100	0.018724	1
4300	0.020406	0
4500	0.022160	0
4700	0.023987	0
4900	0.025886	0
5100	0.027857	0
5300	0.029901	0
5500	0.032017	0
5700	0.034205	0
5900	0.036465	0
6100	0.038798	0
6300	0.041204	0
6500	0.043681	0
6700	0.046231	0
6900	0.048854	0
7100	0.051548	0
7300	0.054315	0
7500	0.057154	0
7700	0.060066	0
7900	0.063050	0
8100	0.066106	1
8300	0.069235	0
8500	0.072436	0
8700	0.075709	1
8900	0.079054	0
9100	0.082472	0
9300	0.085963	0
9500	0.089525	0
9700	0.093160	0
9900	0.096867	1
10100	0.100647	1
10300	0.104499	0
10500	0.108423	1
10700	0.112419	0
10900	0.116488	0
11100	0.120630	0
11300	0.124843	0
11500	0.129129	0
11700	0.133487	0
11900	0.137918	0
12100	0.142421	0
12300	0.146996	0
12500	0.151643	0
12700	0.156363	0
12900	0.161155	0
13100	0.166020	0
13300	0.170957	0
13500	0.175966	0
13700	0.181047	0
13900	0.186201	0
14100	0.191428	0
14300	0.196726	0
14500	0.202097	0
14700	0.207540	0
14900	0.213056	0
15100	0.218643	0
15300	0.224304	0
15500	0.230036	0
15700	0.235841	0
15900	0.241718	0
16100	0.247668	0
16300	0.253689	0
16500	0.259784	0
16700	0.265950	0
16900	0.272189	0
17100	0.278500	0
17300	0.284883	0
17500	0.291339	0
17700	0.297867	0
17900	0.304468	0
18100	0.311141	0
18300	0.317886	0
18500	0.324703	0
18700	0.331593	0
18900	0.338555	0
19100	0.345590	0
19300	0.352696	0
19500	0.359876	0
19700	0.367127	0
19900	0.374451	0
20100	0.381847	0
20300	0.389315	0
20500	0.396856	0
20700	0.404469	0
20900	0.412155	0
21100	0.419912	0
21300	0.427743	0
21500	0.435645	0
21700	0.443620	0
21900	0.451667	0
22100	0.459786	0
22300	0.467978	0
22500	0.476242	0
22700	0.484579	0
22900	0.492987	0
23100	0.501468	0
23300	0.510022	0
23500	0.518648	0
23700	0.527346	0
23900	0.536116	0
24100	0.544959	0
24300	0.553874	0
24500	0.562861	0
24700	0.571921	0
24900	0.581053	0
25100	0.590257	0
25300	0.599534	0
25500	0.608883	0
25700	0.618305	0
25900	0.627798	0
26100	0.637364	0
26300	0.647003	0
26500	0.656713	0
26700	0.666496	0
26900	0.676352	0
27100	0.686279	0
27300	0.696280	0
27500	0.706352	0
27700	0.716497	0
27900	0.726714	0
28100	0.737003	0
28300	0.747365	0
28500	0.757799	0
28700	0.768305	0
28900	0.778884	0
29100	0.789535	0
29300	0.800258	0
29500	0.811054	0
29700	0.821922	0
29900	0.832862	0
30100	0.843875	0
30300	0.854960	0
30500	0.866117	0
30700	0.877347	0
30900	0.888649	1
31100	0.900023	1
31300	0.911470	0
31500	0.922989	1
31700	0.934580	8
31900	0.946244	2
32100	0.957980	2
32300	0.969788	90
32500	0.981669	34
32700	0.993622	31
32900	1.005647	514173
33100	1.017744	1055
33300	1.029914	111
33500	1.042157	48
33700	1.054471	29
33900	1.066858	15
34100	1.079318	13
34300	1.091849	8
34500	1.104453	5
34700	1.117129	6
34900	1.129878	9
35100	1.142699	1
35300	1.155592	3
35500	1.168558	2
35700	1.181596	1
35900	1.194706	2
36100	1.207889	1
36300	1.221144	1
36500	1.234471	0
36700	1.247870	2
36900	1.261342	0
37100	1.274887	1
37300	1.288503	2
37500	1.302192	1
37700	1.315953	0
37900	1.329787	1
38100	1.343693	0
38300	1.357671	0
38500	1.371722	1
38700	1.385845	1
38900	1.400040	0
39100	1.414307	1
39300	1.428647	2
39500	1.443059	0
39700	1.457544	0
39900	1.472101	0
40100	1.486730	0
40300	1.501432	0
40500	1.516206	0
40700	1.531052	0
40900	1.545970	0
41100	1.560961	0
41300	1.576024	0
41500	1.591160	0
41700	1.606368	0
41900	1.621648	0
42100	1.637001	0
42300	1.652425	0
42500	1.667923	0
42700	1.683492	1
42900	1.699134	2
43100	1.714848	1
43300	1.730635	2
43500	1.746494	0
43700	1.762425	0
43900	1.778428	0
44100	1.794504	0
44300	1.810652	0
44500	1.826873	0
44700	1.843166	0
44900	1.859531	0
45100	1.875968	0
45300	1.892478	0
45500	1.909060	0
45700	1.925715	1
45900	1.942442	0
46100	1.959241	0
46300	1.976112	0
46500	1.993056	0
46700	2.010072	56
46900	2.027161	1
47100	2.044321	1
47300	2.061555	0
47500	2.078860	0
47700	2.096238	1
47900	2.113688	0
48100	2.131210	0
48300	2.148805	0
48500	2.166472	0
48700	2.184212	0
48900	2.202024	0
49100	2.219908	0
49300	2.237864	0
49500	2.255893	0
49700	2.273994	0
49900	2.292167	0
50100	2.310413	0
50300	2.328731	0
50500	2.347122	0
50700	2.365584	0
50900	2.384120	0
51100	2.402727	0
51300	2.421407	0
51500	2.440159	1
51700	2.458983	0
51900	2.477880	0
52100	2.496849	1
52300	2.515891	0
52500	2.535004	0
52700	2.554190	0
52900	2.573449	0
53100	2.592779	0
53300	2.612183	0
53500	2.631658	0
53700	2.651206	0
53900	2.670826	0
54100	2.690518	0
54300	2.710283	0
54500	2.730120	0
54700	2.750029	0
54900	2.770011	0
55100	2.790065	0
55300	2.810191	1
55500	2.830390	0
55700	2.850661	0
55900	2.871005	0
56100	2.891420	1
56300	2.911908	0
56500	2.932469	0
56700	2.953101	0
56900	2.973806	0
57100	2.994584	0
57300	3.015433	0
57500	3.036355	1
57700	3.057350	0
57900	3.078416	0
58100	3.099556	0
58300	3.120767	0
58500	3.142051	0
58700	3.163407	0
58900	3.184835	0
59100	3.206336	0
59300	3.227909	0
59500	3.249554	0
59700	3.271272	1
59900	3.293062	1
60100	3.314924	1
60300	3.336859	0
60500	3.358865	0
60700	3.380945	0
60900	3.403096	0
61100	3.425320	0
61300	3.447617	0
61500	3.469985	0
61700	3.492426	0
61900	3.514940	0
62100	3.537525	0
62300	3.560183	0
62500	3.582914	1
62700	3.605716	1
62900	3.628591	0
63100	3.651538	0
63300	3.674558	0
63500	3.697650	0
63700	3.720814	1
63900	3.744051	0
64100	3.767360	0
64300	3.790741	0
64500	3.814195	0
64700	3.837721	0
64900	3.861319	0
65100	3.884990	0
65300	3.908732	0
65500	3.932548	0
65700	3.956435	0
65900	3.980395	0
66100	4.004428	1
66300	4.028532	0
66500	4.052709	0
66700	4.076958	0
66900	4.101280	0
67100	4.125674	0
67300	4.150140	1
67500	4.174679	0
67700	4.199289	1
67900	4.223973	0
68100	4.248728	0
68300	4.273556	0
68500	4.298456	0
68700	4.323429	0
68900	4.348474	0
69100	4.373591	0
69300	4.398781	0
69500	4.424043	0
69700	4.449377	1
69900	4.474783	0
70100	4.500262	0
70300	4.525813	0
70500	4.551437	0
70700	4.577133	0
70900	4.602901	0
71100	4.628741	0
71300	4.654654	0
71500	4.680640	0
71700	4.706697	0
71900	4.732827	0
72100	4.759029	0
72300	4.785304	0
72500	4.811650	0
72700	4.838070	0
72900	4.864561	0
73100	4.891125	0
73300	4.917761	0
73500	4.944470	0
73700	4.971251	0
73900	4.998104	0
74100	5.025029	0
74300	5.052027	0
74500	5.079097	0
74700	5.106240	0
74900	5.133454	0
75100	5.160742	0
75300	5.188101	1
75500	5.215533	0
75700	5.243037	0
75900	5.270614	0
76100	5.298262	0
76300	5.325984	0
76500	5.353777	0
76700	5.381643	0
76900	5.409581	0
77100	5.437591	0
77300	5.465674	0
77500	5.493829	0
77700	5.522057	0
77900	5.550357	0
78100	5.578729	0
78300	5.607173	0
78500	5.635690	0
78700	5.664279	0
78900	5.692940	0
79100	5.721674	0
79300	5.750480	0
79500	5.779359	0
79700	5.808310	0
79900	5.837333	0
80100	5.866428	0
80300	5.895596	0
80500	5.924836	0
80700	5.954148	0
80900	5.983533	0
81100	6.012990	0
81300	6.042520	0
81500	6.072121	0
81700	6.101795	0
81900	6.131542	0
82100	6.161361	0
82300	6.191252	0
82500	6.221215	0
82700	6.251251	0
82900	6.281359	0
83100	6.311539	0
83300	6.341792	0
83500	6.372117	0
83700	6.402514	0
83900	6.432984	0
84100	6.463526	0
84300	6.494141	0
84500	6.524827	1
84700	6.555586	0
84900	6.586418	0
85100	6.617321	0
85300	6.648297	0
85500	6.679346	0
85700	6.710466	0
85900	6.741660	0
86100	6.772925	1
86300	6.804263	0
86500	6.835673	0
86700	6.867155	0
86900	6.898710	0
87100	6.930337	1
87300	6.962036	0
87500	6.993808	0
87700	7.025652	0
87900	7.057568	0
88100	7.089557	1
88300	7.121618	0
88500	7.153751	0
88700	7.185957	1
88900	7.218235	0
89100	7.250585	0
89300	7.283008	0
89500	7.315503	0
89700	7.348070	0
89900	7.380710	1
90100	7.413422	0
90300	7.446206	0
90500	7.479063	0
90700	7.511992	0
90900	7.544993	0
91100	7.578066	0
91300	7.611212	0
91500	7.644431	0
91700	7.677721	0
91900	7.711084	0
92100	7.744520	0
92300	7.778027	0
92500	7.811607	0
92700	7.845259	0
92900	7.878984	0
93100	7.912781	0
93300	7.946650	0
93500	7.980592	0
93700	8.014606	0
93900	8.048692	0
94100	8.082851	0
94300	8.117082	0
94500	8.151385	0
94700	8.185761	0
94900	8.220208	0
95100	8.254729	0
95300	8.289321	0
95500	8.323986	0
95700	8.358723	0
95900	8.393533	0
96100	8.428415	0
96300	8.463369	0
96500	8.498396	0
96700	8.533495	0
96900	8.568666	0
97100	8.603910	0
97300	8.639225	0
97500	8.674614	0
97700	8.710074	0
97900	8.745607	0
98100	8.781212	0
98300	8.816890	0
98500	8.852640	0
98700	8.888462	0
98900	8.924357	0
99100	8.960323	0
99300	8.996363	0
99500	9.032474	0
99700	9.068658	0
99900	9.104914	0
100100	9.141243	0
100300	9.177644	0
100500	9.214117	0
100700	9.250662	0
100900	9.287280	0
101100	9.323970	0
101300	9.360733	0
101500	9.397568	0
101700	9.434475	0
101900	9.471454	0
102100	9.508506	0
102300	9.545630	1
102500	9.582827	0
102700	9.620096	0
102900	9.657437	0
103100	9.694851	0
103300	9.732336	0
103500	9.769895	0
103700	9.807525	0
103900	9.845228	0
104100	9.883003	0
104300	9.920850	0
104500	9.958770	0
104700	9.996762	2
104900	10.034827	1
105100	10.072964	0
105300	10.111173	0
105500	10.149454	0
105700	10.187808	0
105900	10.226234	0
106100	10.264733	1
106300	10.303304	0
106500	10.341947	0
106700	10.380662	0
106900	10.419450	2
107100	10.458310	0
107300	10.497242	0
107500	10.536247	0
107700	10.575324	0
107900	10.614474	0
108100	10.653696	0
108300	10.692990	0
108500	10.732356	0
108700	10.771795	0
108900	10.811306	0
109100	10.850889	0
109300	10.890545	0
109500	10.930273	0
109700	10.970074	0
109900	11.009946	7
110100	11.049892	0
110300	11.089909	0
110500	11.129999	0
110700	11.170161	0
110900	11.210395	0
111100	11.250702	0
111300	11.291081	0
111500	11.331532	0
111700	11.372056	0
111900	11.412652	0
112100	11.453321	0
112300	11.494061	1
112500	11.534874	0
112700	11.575760	1
112900	11.616718	0
113100	11.657748	1
113300	11.698850	1
113500	11.740025	3
113700	11.781272	0
113900	11.822591	0
114100	11.863983	4
114300	11.905447	0
114500	11.946983	3
114700	11.988592	54396
114900	12.030273	256
115100	12.072026	3
115300	12.113852	3
115500	12.155750	2
115700	12.197720	1
115900	12.239763	0
116100	12.281878	1
116300	12.324065	4
116500	12.366325	2
116700	12.408657	0
116900	12.451061	1
117100	12.493538	1
117300	12.536087	0
117500	12.578709	1
117700	12.621402	0
117900	12.664168	0
118100	12.707006	2
118300	12.749917	2
118500	12.792900	0
118700	12.835955	2
118900	12.879083	6
119100	12.922283	0
119300	12.965555	3
119500	13.008900	60958
119700	13.052317	33
119900	13.095806	2
120100	13.139368	3
120300	13.183002	6
120500	13.226708	4
120700	13.270487	5
120900	13.314338	1
121100	13.358261	1
121300	13.402257	1
121500	13.446325	0
121700	13.490465	2
121900	13.534678	13
122100	13.578963	5
122300	13.623320	1
122500	13.667749	2
122700	13.712251	0
122900	13.756826	2
123100	13.801472	1
123300	13.846191	0
123500	13.890983	3
123700	13.935846	2
123900	13.980782	1
124100	14.025790	10832
124300	14.070871	5
124500	14.116024	2
124700	14.161249	2
124900	14.206547	2
125100	14.251917	1
125300	14.297359	1
125500	14.342873	0
125700	14.388460	1
125900	14.434120	1
126100	14.479851	1
126300	14.525655	0
126500	14.571531	3
126700	14.617480	7
126900	14.663501	1
127100	14.709594	1
127300	14.755759	0
127500	14.801997	0
127700	14.848308	3
127900	14.894690	1
128100	14.941145	0
128300	14.987672	54
128500	15.034272	15195
128700	15.080944	40
128900	15.127688	15
129100	15.174504	3
129300	15.221393	7
129500	15.268354	3
129700	15.315388	1
129900	15.362494	3
130100	15.409672	3
130300	15.456923	3
130500	15.504245	2
130700	15.551641	2
130900	15.599108	3
131100	15.646648	17
131300	15.694260	1
131500	15.741945	2
131700	15.789701	1
131900	15.837531	11
132100	15.885432	2
132300	15.933406	10
132500	15.981452	212023
132700	16.029571	1526
132900	16.077761	9
133100	16.126025	6
133300	16.174360	2
133500	16.222768	2
133700	16.271248	3
133900	16.319801	3
134100	16.368425	3
134300	16.417123	1
134500	16.465892	4
134700	16.514734	2
134900	16.563648	3
135100	16.612634	2
135300	16.661693	2
135500	16.710824	0
135700	16.760028	3
135900	16.809304	6
136100	16.858652	10
136300	16.908072	0
136500	16.957565	8
136700	17.007130	90847
136900	17.056768	89
137100	17.106477	17
137300	17.156259	10
137500	17.206114	5
137700	17.256041	8
137900	17.306040	6
138100	17.356111	2
138300	17.406255	7
138500	17.456471	3
138700	17.506759	1
138900	17.557120	0
139100	17.607553	1
139300	17.658059	4
139500	17.708636	17
139700	17.759287	3
139900	17.810009	3
140100	17.860804	1
140300	17.911671	0
140500	17.962610	3
140700	18.013622	377
140900	18.064706	2
141100	18.115862	1
141300	18.167091	1
141500	18.218392	0
141700	18.269766	1
141900	18.321211	2
142100	18.372729	0
142300	18.424320	0
142500	18.475982	2
142700	18.527717	0
142900	18.579525	0
143100	18.631405	0
143300	18.683357	1
143500	18.735381	0
143700	18.787478	0
143900	18.839647	1
144100	18.891888	0
144300	18.944202	0
144500	18.996588	9362
144700	19.049046	28
144900	19.101577	2
145100	19.154180	1
145300	19.206855	0
145500	19.259603	0
145700	19.312423	0
145900	19.365315	0
146100	19.418280	1
146300	19.471317	0
146500	19.524426	0
146700	19.577608	0
146900	19.630862	0
147100	19.684188	0
147300	19.737587	0
147500	19.791058	0
147700	19.844601	1
147900	19.898217	0
148100	19.951905	1
148300	20.005665	0
148500	20.059498	0
148700	20.113403	1
148900	20.167380	0
149100	20.221430	0
149300	20.275552	1
149500	20.329746	0
149700	20.384013	0
149900	20.438352	0
150100	20.492763	0
150300	20.547247	1
150500	20.601803	0
150700	20.656431	0
150900	20.711131	0
151100	20.765904	0
151300	20.820750	1
151500	20.875667	0
151700	20.930657	0
151900	20.985720	0
152100	21.040854	1
152300	21.096061	0
152500	21.151340	0
152700	21.206692	0
152900	21.262116	0
153100	21.317612	0
153300	21.373181	0
153500	21.428822	0
153700	21.484535	0
153900	21.540321	0
154100	21.596178	0
154300	21.652109	1
154500	21.708111	1
154700	21.764186	0
154900	21.820333	0
155100	21.876553	0
155300	21.932845	0
155500	21.989209	5
155700	22.045646	0
155900	22.102155	0
156100	22.158736	0
156300	22.215389	0
156500	22.272115	0
156700	22.328914	0
156900	22.385784	0
157100	22.442727	0
157300	22.499742	0
157500	22.556830	0
157700	22.613990	0
157900	22.671222	0
158100	22.728526	0
158300	22.785903	0
158500	22.843352	1
158700	22.900874	0
158900	22.958468	7
159100	23.016134	82
159300	23.073873	0
159500	23.131683	1
159700	23.189567	2
159900	23.247522	0
160100	23.305550	1
160300	23.363650	1
160500	23.421823	0
160700	23.480067	0
160900	23.538385	0
161100	23.596774	2
161300	23.655236	2
161500	23.713770	2
161700	23.772377	2
161900	23.831055	4
162100	23.889807	4
162300	23.948630	379
162500	24.007526	267269
162700	24.066494	96
162900	24.125535	26
163100	24.184647	19
163300	24.243833	13
163500	24.303090	12
163700	24.362420	19
163900	24.421822	10
164100	24.481296	7
164300	24.540843	10
164500	24.600462	4
164700	24.660154	9
164900	24.719918	8
165100	24.779754	21
165300	24.839662	14
165500	24.899643	7
165700	24.959696	124
165900	25.019822	317287
166100	25.080019	252
166300	25.140289	58
166500	25.200632	34
166700	25.261047	20
166900	25.321534	15
167100	25.382093	11
167300	25.442725	9
167500	25.503429	11
167700	25.564205	10
167900	25.625054	4
168100	25.685975	8
168300	25.746969	6
168500	25.808035	15
168700	25.869173	3
168900	25.930383	9
169100	25.991666	268322
169300	26.053021	6986
169500	26.114448	1290
169700	26.175948	476
169900	26.237520	239
170100	26.299164	168
170300	26.360881	96
170500	26.422670	57
170700	26.484532	37
170900	26.546465	36
171100	26.608471	28
171300	26.670550	22
171500	26.732701	16
171700	26.794924	12
171900	26.857219	20
172100	26.919587	4
172300	26.982027	5625
172500	27.044539	3322
172700	27.107124	45
172900	27.169781	18
173100	27.232510	16
173300	27.295312	6
173500	27.358186	9
173700	27.421132	3
173900	27.484151	5
174100	27.547242	2
174300	27.610405	4
174500	27.673641	4
174700	27.736949	4
174900	27.800329	1
175100	27.863782	4
175300	27.927307	0
175500	27.990904	383
175700	28.054574	87
175900	28.118316	1
176100	28.182130	1
176300	28.246017	1
176500	28.309976	3
176700	28.374007	0
176900	28.438111	0
177100	28.502287	1
177300	28.566535	1
177500	28.630856	2
177700	28.695249	2
177900	28.759714	0
178100	28.824252	1
178300	28.888862	0
178500	28.953544	136
178700	29.018299	1000
178900	29.083126	9
179100	29.148025	1
179300	29.212997	0
179500	29.278041	1
179700	29.343157	1
179900	29.408346	0
180100	29.473607	1
180300	29.538940	1
180500	29.604346	3
180700	29.669823	6
180900	29.735374	1
181100	29.800996	1
181300	29.866691	2
181500	29.932459	1
181700	29.998298	220
181900	30.064210	3
182100	30.130194	2
182300	30.196251	3
182500	30.262380	3
182700	30.328581	0
182900	30.394855	1
183100	30.461201	2
183300	30.527619	0
183500	30.594109	1
183700	30.660672	3
183900	30.727308	0
184100	30.794015	1
184300	30.860795	1
184500	30.927647	1
184700	30.994572	888
184900	31.061569	64
185100	31.128638	1
185300	31.195780	1
185500	31.262994	1
185700	31.330280	0
185900	31.397638	0
186100	31.465069	0
186300	31.532572	1
186500	31.600148	1
186700	31.667796	0
186900	31.735516	0
187100	31.803309	2
187300	31.871173	0
187500	31.939111	228
187700	32.007120	5034
187900	32.075202	2
188100	32.143356	2
188300	32.211583	1
188500	32.279882	0
188700	32.348253	1
188900	32.416696	1
189100	32.485212	0
189300	32.553800	1
189500	32.622461	0
189700	32.691194	0
189900	32.759999	3
190100	32.828876	1
190300	32.897826	5
190500	32.966848	838
190700	33.035943	186
190900	33.105110	1
191100	33.174349	1
191300	33.243660	1
191500	33.313044	1
191700	33.382500	1
191900	33.452029	2
192100	33.521630	1
192300	33.591303	2
192500	33.661048	1
192700	33.730866	1
192900	33.800756	2
193100	33.870719	3
193300	33.940754	21
193500	34.010861	71
193700	34.081040	0
193900	34.151292	0
194100	34.221616	2
194300	34.292013	0
194500	34.362481	3
194700	34.433022	0
194900	34.503636	0
195100	34.574322	2
195300	34.645080	1
195500	34.715910	14
195700	34.786813	4
195900	34.857788	4
196100	34.928836	4951
196300	34.999955	693458
196500	35.071147	1566
196700	35.142412	493
196900	35.213749	211
197100	35.285158	90
197300	35.356639	51
197500	35.428193	42
197700	35.499819	18
197900	35.571517	21
198100	35.643288	8
198300	35.715131	13
198500	35.787047	11
198700	35.859034	9
198900	35.931094	37
199100	36.003227	45523
199300	36.075432	38
199500	36.147709	6
199700	36.220058	7
199900	36.292480	5
200100	36.364974	6
200300	36.437540	2
200500	36.510179	3
200700	36.582890	8
200900	36.655673	3
201100	36.728529	7
201300	36.801457	2
201500	36.874458	8
201700	36.947530	220823
201900	37.020675	15088
202100	37.093893	390
202300	37.167182	126
202500	37.240544	55
202700	37.313979	31
202900	37.387485	23
203100	37.461064	15
203300	37.534716	12
203500	37.608439	10
203700	37.682236	6
203900	37.756104	5
204100	37.830045	4
204300	37.904058	4
204500	37.978143	3065
204700	38.052301	2700
204900	38.126531	8
205100	38.200833	4
205300	38.275208	4
205500	38.349655	4
205700	38.424174	2
205900	38.498766	6
206100	38.573430	6
206300	38.648166	2
206500	38.722975	0
206700	38.797856	2
206900	38.872809	4
207100	38.947834	35
207300	39.022932	3024
207500	39.098103	54
207700	39.173345	12
