# Binning: 200 channels
# Deadtime Correction: on
Channel	m/z	Intensity
100	0.000227	1
300	0.000447	282
500	0.000740	4
700	0.001107	2
900	0.001547	1
1100	0.002061	1
1300	0.002648	16
1500	0.003309	10
1700	0.004044	4
1900	0.004852	0
2100	0.005734	0
2300	0.006689	0
2500	0.007718	0
2700	0.008820	0
2900	0.009996	0
3100	0.011246	0
3300	0.012569	0
3500	0.013966	0
3700	0.015436	0
3900	0.016980	0
4100	0.018597	0
4300	0.020288	0
4500	0.022052	0
4700	0.023890	0
4900	0.025802	0
5100	0.027787	0
5300	0.029846	0
5500	0.031978	0
5700	0.034184	0
5900	0.036464	0
6100	0.038817	0
6300	0.041243	0
6500	0.043743	0
6700	0.046317	0
6900	0.048964	0
7100	0.051685	0
7300	0.054480	0
7500	0.057348	0
7700	0.060289	0
7900	0.063304	0
8100	0.066393	0
8300	0.069555	0
8500	0.072791	0
8700	0.076100	0
8900	0.079483	0
9100	0.082940	0
9300	0.086470	0
9500	0.090074	0
9700	0.093751	0
9900	0.097502	0
10100	0.101326	0
10300	0.105224	0
10500	0.109195	0
10700	0.113240	0
10900	0.117359	0
11100	0.121551	0
11300	0.125817	0
11500	0.130156	0
11700	0.134569	0
11900	0.139055	0
12100	0.143615	1
12300	0.148249	0
12500	0.152956	0
12700	0.157737	0
12900	0.162591	0
13100	0.167519	0
13300	0.172520	0
13500	0.177595	0
13700	0.182744	0
13900	0.187966	0
14100	0.193261	0
14300	0.198631	0
14500	0.204073	0
14700	0.209590	0
14900	0.215180	0
15100	0.220843	0
15300	0.226580	0
15500	0.232391	0
15700	0.238275	0
15900	0.244233	0
16100	0.250264	0
16300	0.256369	0
16500	0.262547	0
16700	0.268799	0
16900	0.275125	0
17100	0.281524	0
17300	0.287997	0
17500	0.294543	0
17700	0.301163	0
17900	0.307856	0
18100	0.314623	0
18300	0.321464	0
18500	0.328378	0
18700	0.335366	0
18900	0.342427	0
19100	0.349562	0
19300	0.356770	0
19500	0.364052	0
19700	0.371407	0
19900	0.378836	0
20100	0.386339	0
20300	0.393915	0
20500	0.401565	0
20700	0.409288	0
20900	0.417085	0
21100	0.424956	0
21300	0.432900	0
21500	0.440917	0
21700	0.449008	0
21900	0.457173	0
22100	0.465411	0
22300	0.473723	0
22500	0.482109	0
22700	0.490568	0
22900	0.499100	0
23100	0.507706	0
23300	0.516386	0
23500	0.525139	0
23700	0.533966	0
23900	0.542866	0
24100	0.551840	0
24300	0.560888	0
24500	0.570009	0
24700	0.579204	0
24900	0.588472	0
25100	0.597814	0
25300	0.607229	0
25500	0.616718	0
25700	0.626280	0
25900	0.635916	0
26100	0.645626	0
26300	0.655409	0
26500	0.665266	0
26700	0.675196	0
26900	0.685200	0
27100	0.695277	0
27300	0.705428	0
27500	0.715653	0
27700	0.725951	0
27900	0.736323	0
28100	0.746768	0
28300	0.757287	0
28500	0.767879	0
28700	0.778545	0
28900	0.789285	0
29100	0.800098	0
29300	0.810984	0
29500	0.821945	0
29700	0.832978	1
29900	0.844086	0
30100	0.855267	0
30300	0.866521	0
30500	0.877849	0
30700	0.889251	0
30900	0.900726	0
31100	0.912275	0
31300	0.923897	1
31500	0.935593	2
31700	0.947362	3
31900	0.959205	3
32100	0.971122	40
32300	0.983112	60
32500	0.995176	46
32700	1.007313	2844860
32900	1.019524	3511
33100	1.031808	58
33300	1.044166	67
33500	1.056598	52
33700	1.069103	45
33900	1.081681	38
34100	1.094334	34
34300	1.107059	27
34500	1.119859	29
34700	1.132732	21
34900	1.145678	12
35100	1.158698	19
35300	1.171792	21
35500	1.184959	11
35700	1.198200	8
35900	1.211514	8
36100	1.224902	4
36300	1.238363	4
36500	1.251899	7
36700	1.265507	3
36900	1.279189	2
37100	1.292945	3
37300	1.306774	1
37500	1.320677	1
37700	1.334653	4
37900	1.348703	3
38100	1.362827	0
38300	1.377024	0
38500	1.391295	0
38700	1.405639	0
38900	1.420057	0
39100	1.434548	0
39300	1.449113	2
39500	1.463752	0
39700	1.478464	1
39900	1.493249	1
40100	1.508109	3
40300	1.523041	1
40500	1.538048	2
40700	1.553128	2
40900	1.568281	1
41100	1.583508	0
41300	1.598809	0
41500	1.614183	0
41700	1.629631	0
41900	1.645152	1
42100	1.660747	0
42300	1.676415	0
42500	1.692157	0
42700	1.707973	0
42900	1.723862	1
43100	1.739824	2
43300	1.755861	0
43500	1.771971	0
43700	1.788154	0
43900	1.804411	0
44100	1.820741	0
44300	1.837145	0
44500	1.853623	0
44700	1.870174	0
44900	1.886799	1
45100	1.903497	0
45300	1.920269	0
45500	1.937115	1
45700	1.954034	1
45900	1.971027	0
46100	1.988093	0
46300	2.005232	1
46500	2.022446	294
46700	2.039733	0
46900	2.057093	0
47100	2.074527	0
47300	2.092035	1
47500	2.109616	0
47700	2.127270	0
47900	2.144999	0
48100	2.162801	1
48300	2.180676	0
48500	2.198625	0
48700	2.216647	1
48900	2.234744	0
49100	2.252913	0
49300	2.271156	0
49500	2.289473	0
49700	2.307864	0
49900	2.326327	0
50100	2.344865	0
50300	2.363476	0
50500	2.382161	0
50700	2.400919	0
50900	2.419751	0
51100	2.438656	0
51300	2.457635	1
51500	2.476687	0
51700	2.495813	0
51900	2.515013	1
52100	2.534286	0
52300	2.553633	0
52500	2.573053	0
52700	2.592547	0
52900	2.612114	0
53100	2.631755	0
53300	2.651470	0
53500	2.671258	0
53700	2.691120	0
53900	2.711055	0
54100	2.731064	0
54300	2.751146	1
54500	2.771302	3
54700	2.791531	0
54900	2.811834	0
55100	2.832211	1
55300	2.852661	0
55500	2.873185	1
55700	2.893782	0
55900	2.914453	0
56100	2.935198	1
56300	2.956016	0
56500	2.976907	0
56700	2.997873	0
56900	3.018911	0
57100	3.040024	0
57300	3.061209	1
57500	3.082469	0
57700	3.103802	0
57900	3.125208	0
58100	3.146688	0
58300	3.168242	0
58500	3.189869	0
58700	3.211570	0
58900	3.233345	1
59100	3.255193	0
59300	3.277114	6
59500	3.299109	0
59700	3.321178	1
59900	3.343320	3
60100	3.365536	0
60300	3.387825	0
60500	3.410188	0
60700	3.432625	0
60900	3.455135	0
61100	3.477718	0
61300	3.500375	0
61500	3.523106	0
61700	3.545910	0
61900	3.568788	0
62100	3.591740	1
62300	3.614765	0
62500	3.637863	0
62700	3.661035	1
62900	3.684281	2
63100	3.707600	5
63300	3.730993	2
63500	3.754460	0
63700	3.778000	0
63900	3.801613	0
64100	3.825300	0
64300	3.849061	0
64500	3.872895	0
64700	3.896803	0
64900	3.920784	0
65100	3.944839	0
65300	3.968968	0
65500	3.993170	0
65700	4.017445	1
65900	4.041794	3
66100	4.066217	0
66300	4.090714	0
66500	4.115283	0
66700	4.139927	0
66900	4.164644	0
67100	4.189434	0
67300	4.214299	1
67500	4.239236	0
67700	4.264248	0
67900	4.289332	0
68100	4.314491	0
68300	4.339723	0
68500	4.365028	0
68700	4.390407	0
68900	4.415860	1
69100	4.441386	0
69300	4.466986	0
69500	4.492660	0
69700	4.518406	1
69900	4.544227	0
70100	4.570121	0
70300	4.596089	0
70500	4.622130	0
70700	4.648245	0
70900	4.674433	0
71100	4.700695	0
71300	4.727030	0
71500	4.753439	0
71700	4.779922	0
71900	4.806478	0
72100	4.833108	0
72300	4.859811	1
72500	4.886588	0
72700	4.913438	1
72900	4.940362	0
73100	4.967360	0
73300	4.994431	0
73500	5.021576	0
73700	5.048794	0
73900	5.076086	0
74100	5.103451	0
74300	5.130890	0
74500	5.158403	0
74700	5.185989	0
74900	5.213648	1
75100	5.241382	1
75300	5.269188	0
75500	5.297069	1
75700	5.325023	1
75900	5.353050	0
76100	5.381151	4
76300	5.409326	0
76500	5.437574	1
76700	5.465896	1
76900	5.494291	0
77100	5.522760	0
77300	5.551302	0
77500	5.579918	1
77700	5.608608	0
77900	5.637371	0
78100	5.666208	0
78300	5.695118	0
78500	5.724102	2
78700	5.753159	0
78900	5.782290	0
79100	5.811495	0
79300	5.840773	0
79500	5.870124	1
79700	5.899550	1
79900	5.929048	2
80100	5.958621	1
80300	5.988267	1
80500	6.017986	5
80700	6.047779	0
80900	6.077646	0
81100	6.107586	1
81300	6.137600	1
81500	6.167687	0
81700	6.197848	0
81900	6.228082	0
82100	6.258390	0
82300	6.288772	0
82500	6.319227	0
82700	6.349756	1
82900	6.380358	1
83100	6.411034	1
83300	6.441783	1
83500	6.472606	0
83700	6.503503	0
83900	6.534473	0
84100	6.565517	0
84300	6.596634	1
84500	6.627825	2
84700	6.659089	1
84900	6.690427	0
85100	6.721838	1
85300	6.753324	1
85500	6.784882	1
85700	6.816514	0
85900	6.848220	2
86100	6.879999	1
86300	6.911852	0
86500	6.943779	0
86700	6.975779	0
86900	7.007852	56
87100	7.040000	4
87300	7.072220	3
87500	7.104515	4
87700	7.136882	2
87900	7.169324	3
88100	7.201839	0
88300	7.234427	0
88500	7.267090	0
88700	7.299825	2
88900	7.332634	1
89100	7.365517	2
89300	7.398474	2
89500	7.431504	2
89700	7.464607	0
89900	7.497784	1
90100	7.531035	2
90300	7.564359	1
90500	7.597757	0
90700	7.631228	1
90900	7.664773	1
91100	7.698392	0
91300	7.732084	1
91500	7.765849	1
91700	7.799688	0
91900	7.833601	0
92100	7.867587	0
92300	7.901647	0
92500	7.935781	0
92700	7.969988	0
92900	8.004268	0
93100	8.038622	15
93300	8.073050	0
93500	8.107551	0
93700	8.142126	0
93900	8.176775	0
94100	8.211497	0
94300	8.246292	0
94500	8.281161	0
94700	8.316104	0
94900	8.351120	0
95100	8.386210	0
95300	8.421373	0
95500	8.456610	0
95700	8.491921	3
95900	8.527305	0
96100	8.562762	0
96300	8.598293	0
96500	8.633898	0
96700	8.669576	0
96900	8.705328	0
97100	8.741154	0
97300	8.777053	0
97500	8.813025	0
97700	8.849072	0
97900	8.885191	0
98100	8.921385	0
98300	8.957651	0
98500	8.993992	0
98700	9.030406	7
98900	9.066893	0
99100	9.103454	0
99300	9.140089	0
99500	9.176797	0
99700	9.213579	0
99900	9.250434	0
100100	9.287363	0
100300	9.324366	0
100500	9.361442	0
100700	9.398592	0
100900	9.435815	0
101100	9.473112	0
101300	9.510482	0
101500	9.547926	1
101700	9.585443	1
101900	9.623034	0
102100	9.660699	0
102300	9.698437	0
102500	9.736249	0
102700	9.774134	0
102900	9.812093	0
103100	9.850125	0
103300	9.888231	0
103500	9.926411	0
103700	9.964664	0
103900	10.002991	9
104100	10.041391	0
104300	10.079865	0
104500	10.118412	0
104700	10.157033	0
104900	10.195727	0
105100	10.234496	0
105300	10.273337	0
105500	10.312252	0
105700	10.351241	0
105900	10.390304	0
106100	10.429439	0
106300	10.468649	0
106500	10.507932	0
106700	10.547289	0
106900	10.586719	1
107100	10.626222	0
107300	10.665800	0
107500	10.705451	1
107700	10.745175	0
107900	10.784973	0
108100	10.824845	1
108300	10.864790	0
108500	10.904808	1
108700	10.944901	0
108900	10.985066	0
109100	11.025306	27
109300	11.065619	1
109500	11.106005	0
109700	11.146465	0
109900	11.186999	0
110100	11.227606	0
110300	11.268287	0
110500	11.309041	0
110700	11.349869	0
110900	11.390771	0
111100	11.431746	0
111300	11.472795	1
111500	11.513917	0
111700	11.555112	0
111900	11.596382	0
112100	11.637725	0
112300	11.679141	1
112500	11.720631	0
112700	11.762195	2
112900	11.803832	0
113100	11.845543	0
113300	11.887327	3
113500	11.929185	0
113700	11.971116	121
113900	12.013121	61327
114100	12.055200	5
114300	12.097352	1
114500	12.139577	2
114700	12.181877	5
114900	12.224249	3
115100	12.266696	2
115300	12.309216	2
115500	12.351809	3
115700	12.394476	1
115900	12.437217	4
116100	12.480031	3
116300	12.522919	2
116500	12.565880	2
116700	12.608915	3
116900	12.652023	3
117100	12.695205	6
117300	12.738461	5
117500	12.781790	2
117700	12.825193	1
117900	12.868669	1
118100	12.912219	1
118300	12.955843	5
118500	12.999539	209288
118700	13.043310	136
118900	13.087154	8
119100	13.131072	6
119300	13.175063	10
119500	13.219128	7
119700	13.263266	11
119900	13.307478	6
120100	13.351764	11
120300	13.396123	10
120500	13.440555	9
120700	13.485062	10
120900	13.529641	41
121100	13.574295	11
121300	13.619022	4
121500	13.663822	7
121700	13.708696	6
121900	13.753644	6
122100	13.798665	8
122300	13.843760	1
122500	13.888928	5
122700	13.934170	9
122900	13.979485	6
123100	14.024874	91341
123300	14.070337	21
123500	14.115873	16
123700	14.161483	11
123900	14.207166	9
124100	14.252923	12
124300	14.298753	7
124500	14.344657	11
124700	14.390635	9
124900	14.436686	6
125100	14.482810	9
125300	14.529009	7
125500	14.575280	81
125700	14.621626	16
125900	14.668045	9
126100	14.714537	6
126300	14.761103	15
126500	14.807743	8
126700	14.854456	2
126900	14.901243	2
127100	14.948103	1
127300	14.995037	2537
127500	15.042044	171857
127700	15.089125	213
127900	15.136280	85
128100	15.183508	54
128300	15.230810	31
128500	15.278185	26
128700	15.325634	23
128900	15.373156	24
129100	15.420752	23
129300	15.468422	10
129500	15.516165	14
129700	15.563981	7
129900	15.611872	15
130100	15.659836	181
130300	15.707873	17
130500	15.755984	8
130700	15.804168	15
130900	15.852426	12
131100	15.900758	10
131300	15.949163	180
131500	15.997642	1159134
131700	16.046194	2283
131900	16.094820	31
132100	16.143520	24
132300	16.192293	24
132500	16.241139	27
132700	16.290059	26
132900	16.339053	25
133100	16.388120	18
133300	16.437261	20
133500	16.486476	15
133700	16.535764	10
133900	16.585125	19
134100	16.634560	10
134300	16.684069	17
134500	16.733651	17
134700	16.783307	7
134900	16.833036	13
135100	16.882839	10
135300	16.932716	6
135500	16.982666	885086
135700	17.032690	26708
135900	17.082787	77
136100	17.132958	50
136300	17.183202	46
136500	17.233520	46
136700	17.283911	37
136900	17.334376	32
137100	17.384915	30
137300	17.435527	28
137500	17.486213	23
137700	17.536972	17
137900	17.587805	14
138100	17.638711	11
138300	17.689691	195
138500	17.740745	34
138700	17.791872	13
138900	17.843073	9
139100	17.894347	14
139300	17.945695	6
139500	17.997116	2616
139700	18.048611	10
139900	18.100180	7
140100	18.151822	10
140300	18.203537	5
140500	18.255327	4
140700	18.307189	9
140900	18.359126	6
141100	18.411136	8
141300	18.463219	12
141500	18.515376	7
141700	18.567607	4
141900	18.619911	2
142100	18.672289	4
142300	18.724740	4
142500	18.777265	3
142700	18.829863	3
142900	18.882535	3
143100	18.935281	7
143300	18.988100	48781
143500	19.040993	1308
143700	19.093959	18
143900	19.146999	5
144100	19.200112	2
144300	19.253299	2
144500	19.306560	2
144700	19.359894	2
144900	19.413302	2
145100	19.466783	2
145300	19.520338	2
145500	19.573966	1
145700	19.627668	1
145900	19.681443	0
146100	19.735292	1
146300	19.789215	1
146500	19.843211	4
146700	19.897281	1
146900	19.951424	4
147100	20.005641	8
147300	20.059932	3
147500	20.114296	7
147700	20.168733	3
147900	20.223244	2
148100	20.277829	1
148300	20.332487	4
148500	20.387219	3
148700	20.442025	2
148900	20.496904	1
149100	20.551856	2
149300	20.606882	1
149500	20.661982	3
149700	20.717155	0
149900	20.772402	1
150100	20.827722	1
150300	20.883116	0
150500	20.938584	3
150700	20.994125	2
150900	21.049740	5
151100	21.105428	0
151300	21.161190	0
151500	21.217025	0
151700	21.272934	0
151900	21.328916	0
152100	21.384972	0
152300	21.441102	1
152500	21.497305	0
152700	21.553582	0
152900	21.609932	0
153100	21.666356	0
153300	21.722853	0
153500	21.779424	2
153700	21.836069	1
153900	21.892787	2
154100	21.949579	1
154300	22.006444	11
154500	22.063383	13
154700	22.120395	2
154900	22.177481	2
155100	22.234641	2
155300	22.291874	0
155500	22.349180	1
155700	22.406561	0
155900	22.464014	0
156100	22.521542	1
156300	22.579143	2
156500	22.636817	0
156700	22.694565	1
156900	22.752387	0
157100	22.810282	2
157300	22.868251	2
157500	22.926293	0
157700	22.984409	2127
157900	23.042598	74
158100	23.100861	7
158300	23.159198	7
158500	23.217608	2
158700	23.276092	2
158900	23.334649	2
159100	23.393280	0
159300	23.451984	0
159500	23.510762	1
159700	23.569614	1
159900	23.628539	4
160100	23.687537	0
160300	23.746610	2
160500	23.805756	0
160700	23.864975	2
160900	23.924268	53
161100	23.983634	127639
161300	24.043074	416
161500	24.102588	24
161700	24.162175	12
161900	24.221836	12
162100	24.281570	6
162300	24.341378	5
162500	24.401260	12
162700	24.461215	8
162900	24.521243	11
163100	24.581345	12
163300	24.641521	13
163500	24.701770	12
163700	24.762093	7
163900	24.822490	9
164100	24.882960	15
164300	24.943503	16
164500	25.004120	512025
164700	25.064811	656
164900	25.125575	108
165100	25.186413	59
165300	25.247324	39
165500	25.308309	29
165700	25.369368	12
165900	25.430500	14
166100	25.491705	19
166300	25.552985	17
166500	25.614337	13
166700	25.675764	10
166900	25.737264	11
167100	25.798837	11
167300	25.860484	8
167500	25.922205	8
167700	25.983999	269518
167900	26.045867	8974
168100	26.107808	351
168300	26.169823	128
168500	26.231911	50
168700	26.294073	39
168900	26.356309	25
169100	26.418618	14
169300	26.481001	8
169500	26.543457	12
169700	26.605987	8
169900	26.668590	8
170100	26.731267	11
170300	26.794018	5
170500	26.856842	5
170700	26.919739	3
170900	26.982710	15224
171100	27.045755	36294
171300	27.108874	41
171500	27.172065	19
171700	27.235331	18
171900	27.298670	7
172100	27.362083	14
172300	27.425569	9
172500	27.489129	9
172700	27.552762	7
172900	27.616469	7
173100	27.680249	5
173300	27.744103	4
173500	27.808031	4
173700	27.872032	2
173900	27.936107	9
174100	28.000255	2982
174300	28.064477	107
174500	28.128772	4
174700	28.193141	1
174900	28.257584	1
175100	28.322100	3
175300	28.386689	4
175500	28.451353	0
175700	28.516089	3
175900	28.580900	0
176100	28.645784	4
176300	28.710741	2
176500	28.775772	2
176700	28.840877	3
176900	28.906055	10
177100	28.971307	6107
177300	29.036632	3340
177500	29.102031	10
177700	29.167503	4
177900	29.233049	3
178100	29.298669	2
178300	29.364362	3
178500	29.430129	1
178700	29.495969	4
178900	29.561883	2
179100	29.627870	4
179300	29.693931	9
179500	29.760066	1
179700	29.826274	3
179900	29.892556	4
180100	29.958911	174
180300	30.025340	1616
180500	30.091842	3
180700	30.158418	8
180900	30.225068	8
181100	30.291791	4
181300	30.358587	2
181500	30.425457	2
181700	30.492401	4
181900	30.559419	3
182100	30.626509	3
182300	30.693674	8
182500	30.760912	1
182700	30.828224	4
182900	30.895609	4
183100	30.963067	123
183300	31.030600	5441
183500	31.098206	13
183700	31.165885	4
183900	31.233638	2
184100	31.301465	2
184300	31.369365	1
184500	31.437338	1
184700	31.505386	4
184900	31.573506	6
185100	31.641701	3
185300	31.709969	3
185500	31.778310	6
185700	31.846725	6
185900	31.915214	9
186100	31.983776	42047
186300	32.052412	89
186500	32.121121	3
186700	32.189904	5
186900	32.258761	3
187100	32.327691	2
187300	32.396694	3
187500	32.465772	8
187700	32.534922	5
187900	32.604147	4
188100	32.673444	3
188300	32.742816	6
188500	32.812261	12
188700	32.881779	1
188900	32.951372	4673
189100	33.021037	8757
189300	33.090777	14
189500	33.160589	7
189700	33.230476	8
189900	33.300436	16
190100	33.370469	9
190300	33.440576	9
190500	33.510757	15
190700	33.581011	5
190900	33.651339	9
191100	33.721740	6
191300	33.792215	6
191500	33.862764	15
191700	33.933386	112
191900	34.004082	811
192100	34.074851	1
192300	34.145693	1
192500	34.216610	2
192700	34.287600	2
192900	34.358663	1
193100	34.429800	0
193300	34.501011	0
193500	34.572295	1
193700	34.643653	3
193900	34.715084	31
194100	34.786589	3
194300	34.858167	12
194500	34.929819	4733
194700	35.001545	4557714
194900	35.073344	40
195100	35.145216	96
195300	35.217163	225
195500	35.289182	345
195700	35.361276	337
195900	35.433443	234
196100	35.505683	187
196300	35.577997	143
196500	35.650385	128
196700	35.722846	100
196900	35.795381	74
197100	35.867989	86
197300	35.940671	122
197500	36.013427	17231
197700	36.086256	72
197900	36.159158	63
198100	36.232134	62
198300	36.305184	69
198500	36.378307	41
198700	36.451504	41
198900	36.524775	24
199100	36.598119	26
199300	36.671536	20
199500	36.745027	36
199700	36.818592	10
199900	36.892230	127
200100	36.965942	2644076
200300	37.039727	45446
200500	37.113586	501
200700	37.187519	339
200900	37.261525	267
201100	37.335605	177
201300	37.409758	115
201500	37.483985	81
201700	37.558285	68
201900	37.632659	60
202100	37.707106	56
202300	37.781627	43
202500	37.856222	34
202700	37.930890	61
202900	38.005632	20906
203100	38.080447	71
203300	38.155336	33
203500	38.230299	30
203700	38.305335	37
203900	38.380444	11
204100	38.455627	17
204300	38.530884	31
204500	38.606214	21
204700	38.681618	12
204900	38.757095	16
205100	38.832646	12
205300	38.908271	16
205500	38.983969	6770
205700	39.059741	11737
205900	39.135586	33
206100	39.211505	21
