# Binning: 200 channels
# Deadtime Correction: on
Channel	m/z	Intensity
100	0.000404	0
300	0.000685	16
500	0.001039	0
700	0.001467	0
900	0.001968	0
1100	0.002544	0
1300	0.003192	3
1500	0.003915	2
1700	0.004711	1
1900	0.005581	1
2100	0.006524	0
2300	0.007541	0
2500	0.008632	0
2700	0.009796	0
2900	0.011034	0
3100	0.012346	0
3300	0.013731	0
3500	0.015190	0
3700	0.016722	0
3900	0.018328	0
4100	0.020008	0
4300	0.021762	0
4500	0.023589	0
4700	0.025489	0
4900	0.027463	0
5100	0.029511	0
5300	0.031633	0
5500	0.033828	0
5700	0.036097	0
5900	0.038439	1
6100	0.040855	0
6300	0.043345	0
6500	0.045909	0
6700	0.048546	0
6900	0.051256	0
7100	0.054040	0
7300	0.056898	0
7500	0.059830	0
7700	0.062835	0
7900	0.065914	0
8100	0.069066	0
8300	0.072292	0
8500	0.075592	0
8700	0.078965	0
8900	0.082412	0
9100	0.085933	0
9300	0.089527	0
9500	0.093195	0
9700	0.096937	0
9900	0.100752	0
10100	0.104640	0
10300	0.108603	0
10500	0.112639	0
10700	0.116749	0
10900	0.120932	0
11100	0.125189	0
11300	0.129519	0
11500	0.133924	0
11700	0.138402	0
11900	0.142953	0
12100	0.147578	0
12300	0.152277	0
12500	0.157049	0
12700	0.161895	0
12900	0.166815	0
13100	0.171808	0
13300	0.176875	0
13500	0.182016	0
13700	0.187230	0
13900	0.192518	0
14100	0.197879	0
14300	0.203314	0
14500	0.208823	0
14700	0.214405	0
14900	0.220061	0
15100	0.225791	0
15300	0.231594	0
15500	0.237471	0
15700	0.243422	0
15900	0.249446	0
16100	0.255544	0
16300	0.261715	0
16500	0.267960	0
16700	0.274279	0
16900	0.280671	0
17100	0.287137	0
17300	0.293677	0
17500	0.300290	0
17700	0.306977	0
17900	0.313738	0
18100	0.320572	0
18300	0.327480	1
18500	0.334461	0
18700	0.341516	0
18900	0.348645	0
19100	0.355847	0
19300	0.363123	0
19500	0.370473	0
19700	0.377896	0
19900	0.385393	0
20100	0.392963	0
20300	0.400607	0
20500	0.408325	0
20700	0.416117	0
20900	0.423982	0
21100	0.431920	0
21300	0.439933	0
21500	0.448019	0
21700	0.456178	0
21900	0.464411	0
22100	0.472718	0
22300	0.481099	0
22500	0.489553	0
22700	0.498081	0
22900	0.506682	0
23100	0.515357	0
23300	0.524106	0
23500	0.532928	0
23700	0.541824	0
23900	0.550793	0
24100	0.559837	0
24300	0.568953	0
24500	0.578144	0
24700	0.587408	0
24900	0.596746	0
25100	0.606157	0
25300	0.615642	0
25500	0.625201	0
25700	0.634833	0
25900	0.644539	0
26100	0.654318	0
26300	0.664172	0
26500	0.674098	0
26700	0.684099	0
26900	0.694173	0
27100	0.704321	0
27300	0.714542	0
27500	0.724837	0
27700	0.735205	0
27900	0.745648	0
28100	0.756164	0
28300	0.766753	0
28500	0.777416	0
28700	0.788153	0
28900	0.798963	0
29100	0.809847	0
29300	0.820805	0
29500	0.831836	0
29700	0.842941	0
29900	0.854120	0
30100	0.865372	0
30300	0.876698	0
30500	0.888098	0
30700	0.899571	1
30900	0.911118	0
31100	0.922738	27
31300	0.934432	4
31500	0.946200	4
31700	0.958041	2
31900	0.969956	2
32100	0.981944	25
32300	0.994007	34
32500	1.006142	156324
32700	1.018352	534
32900	1.030635	20
33100	1.042992	9
33300	1.055422	7
33500	1.067926	0
33700	1.080504	6
33900	1.093155	3
34100	1.105880	2
34300	1.118679	3
34500	1.131551	2
34700	1.144497	0
34900	1.157516	1
35100	1.170609	0
35300	1.183776	3
35500	1.197016	0
35700	1.210330	0
35900	1.223718	0
36100	1.237179	0
36300	1.250714	0
36500	1.264322	2
36700	1.278005	0
36900	1.291760	0
37100	1.305590	0
37300	1.319493	0
37500	1.333470	0
37700	1.347520	0
37900	1.361644	0
38100	1.375841	0
38300	1.390113	0
38500	1.404458	0
38700	1.418876	0
38900	1.433368	0
39100	1.447934	0
39300	1.462573	0
39500	1.477286	0
39700	1.492073	0
39900	1.506933	1
40100	1.521867	0
40300	1.536875	0
40500	1.551956	0
40700	1.567111	1
40900	1.582340	0
41100	1.597642	0
41300	1.613017	0
41500	1.628467	0
41700	1.643990	0
41900	1.659586	0
42100	1.675257	0
42300	1.691001	0
42500	1.706818	0
42700	1.722709	2
42900	1.738674	0
43100	1.754713	0
43300	1.770825	0
43500	1.787011	0
43700	1.803270	0
43900	1.819603	0
44100	1.836010	0
44300	1.852490	0
44500	1.869044	0
44700	1.885671	0
44900	1.902372	0
45100	1.919147	0
45300	1.935996	0
45500	1.952918	0
45700	1.969913	0
45900	1.986983	0
46100	2.004126	0
46300	2.021342	10
46500	2.038633	0
46700	2.055997	0
46900	2.073434	0
47100	2.090945	0
47300	2.108530	0
47500	2.126188	0
47700	2.143921	0
47900	2.161726	0
48100	2.179606	0
48300	2.197558	0
48500	2.215585	0
48700	2.233685	0
48900	2.251859	0
49100	2.270107	0
49300	2.288428	0
49500	2.306823	0
49700	2.325291	0
49900	2.343833	0
50100	2.362449	1
50300	2.381138	0
50500	2.399901	0
50700	2.418737	0
50900	2.437648	0
51100	2.456632	0
51300	2.475689	0
51500	2.494820	0
51700	2.514025	0
51900	2.533303	0
52100	2.552655	0
52300	2.572081	0
52500	2.591580	0
52700	2.611153	0
52900	2.630800	0
53100	2.650520	0
53300	2.670314	0
53500	2.690181	0
53700	2.710122	0
53900	2.730137	0
54100	2.750225	0
54300	2.770387	0
54500	2.790623	0
54700	2.810932	0
54900	2.831315	0
55100	2.851772	1
55300	2.872302	0
55500	2.892906	0
55700	2.913583	0
55900	2.934334	0
56100	2.955159	0
56300	2.976057	0
56500	2.997029	0
56700	3.018075	0
56900	3.039194	0
57100	3.060387	0
57300	3.081653	0
57500	3.102993	0
57700	3.124407	0
57900	3.145895	0
58100	3.167456	0
58300	3.189090	0
58500	3.210799	0
58700	3.232581	0
58900	3.254436	0
59100	3.276365	1
59300	3.298368	0
59500	3.320445	0
59700	3.342595	0
59900	3.364819	0
60100	3.387116	0
60300	3.409487	0
60500	3.431932	0
60700	3.454450	0
60900	3.477042	0
61100	3.499708	0
61300	3.522447	0
61500	3.545260	0
61700	3.568146	0
61900	3.591106	0
62100	3.614140	0
62300	3.637247	0
62500	3.660428	0
62700	3.683683	0
62900	3.707011	0
63100	3.730413	0
63300	3.753889	0
63500	3.777438	0
63700	3.801061	0
63900	3.824757	0
64100	3.848527	0
64300	3.872371	0
64500	3.896288	0
64700	3.920279	0
64900	3.944344	0
65100	3.968482	0
65300	3.992694	0
65500	4.016980	0
65700	4.041339	0
65900	4.065772	0
66100	4.090278	0
66300	4.114858	0
66500	4.139512	0
66700	4.164239	0
66900	4.189040	0
67100	4.213915	0
67300	4.238863	0
67500	4.263885	0
67700	4.288980	0
67900	4.314149	0
68100	4.339392	0
68300	4.364709	0
68500	4.390099	0
68700	4.415562	0
68900	4.441100	0
69100	4.466710	0
69300	4.492395	0
69500	4.518153	0
69700	4.543985	0
69900	4.569891	0
70100	4.595870	0
70300	4.621922	0
70500	4.648049	0
70700	4.674249	0
70900	4.700523	0
71100	4.726870	0
71300	4.753291	0
71500	4.779785	0
71700	4.806354	0
71900	4.832995	0
72100	4.859711	0
72300	4.886500	0
72500	4.913363	0
72700	4.940299	0
72900	4.967309	0
73100	4.994393	0
73300	5.021550	0
73500	5.048781	0
73700	5.076085	0
73900	5.103463	0
74100	5.130915	0
74300	5.158441	0
74500	5.186040	0
74700	5.213713	0
74900	5.241459	0
75100	5.269279	0
75300	5.297172	0
75500	5.325140	0
75700	5.353181	0
75900	5.381295	0
76100	5.409483	0
76300	5.437745	0
76500	5.466080	0
76700	5.494490	0
76900	5.522972	0
77100	5.551529	0
77300	5.580158	0
77500	5.608862	0
77700	5.637639	0
77900	5.666490	0
78100	5.695415	0
78300	5.724413	0
78500	5.753485	0
78700	5.782630	0
78900	5.811849	0
79100	5.841142	0
79300	5.870508	0
79500	5.899948	0
79700	5.929461	0
79900	5.959049	0
80100	5.988709	0
80300	6.018444	0
80500	6.048252	0
80700	6.078134	0
80900	6.108089	0
81100	6.138118	0
81300	6.168221	0
81500	6.198397	0
81700	6.228647	0
81900	6.258971	0
82100	6.289368	0
82300	6.319839	0
82500	6.350383	0
82700	6.381001	0
82900	6.411693	0
83100	6.442458	0
83300	6.473297	0
83500	6.504210	0
83700	6.535196	0
83900	6.566256	0
84100	6.597390	0
84300	6.628597	0
84500	6.659877	0
84700	6.691232	0
84900	6.722660	0
85100	6.754162	0
85300	6.785737	0
85500	6.817386	0
85700	6.849109	0
85900	6.880905	0
86100	6.912775	0
86300	6.944718	0
86500	6.976735	0
86700	7.008826	0
86900	7.040991	0
87100	7.073229	0
87300	7.105540	0
87500	7.137926	0
87700	7.170385	0
87900	7.202917	0
88100	7.235523	0
88300	7.268203	0
88500	7.300957	0
88700	7.333784	0
88900	7.366685	0
89100	7.399659	0
89300	7.432707	0
89500	7.465829	0
89700	7.499024	0
89900	7.532293	0
90100	7.565635	0
90300	7.599052	0
90500	7.632541	0
90700	7.666105	0
90900	7.699742	0
91100	7.733453	1
91300	7.767237	0
91500	7.801095	0
91700	7.835027	0
91900	7.869032	0
92100	7.903111	0
92300	7.937263	0
92500	7.971490	0
92700	8.005789	0
92900	8.040163	0
93100	8.074610	0
93300	8.109131	0
93500	8.143725	0
93700	8.178393	0
93900	8.213135	0
94100	8.247950	0
94300	8.282839	0
94500	8.317801	0
94700	8.352837	0
94900	8.387947	0
95100	8.423131	0
95300	8.458388	0
95500	8.493718	0
95700	8.529123	0
95900	8.564601	0
96100	8.600152	0
96300	8.635778	0
96500	8.671476	0
96700	8.707249	0
96900	8.743095	0
97100	8.779015	0
97300	8.815008	0
97500	8.851075	0
97700	8.887216	0
97900	8.923430	0
98100	8.959718	0
98300	8.996080	0
98500	9.032515	0
98700	9.069024	0
98900	9.105606	0
99100	9.142262	0
99300	9.178992	0
99500	9.215796	0
99700	9.252673	0
99900	9.289623	0
100100	9.326648	0
100300	9.363745	0
100500	9.400917	0
100700	9.438162	0
100900	9.475481	0
101100	9.512873	0
101300	9.550340	0
101500	9.587879	0
101700	9.625493	0
101900	9.663180	0
102100	9.700940	0
102300	9.738775	0
102500	9.776682	0
102700	9.814664	0
102900	9.852719	0
103100	9.890848	0
103300	9.929050	0
103500	9.967326	0
103700	10.005676	0
103900	10.044099	0
104100	10.082596	0
104300	10.121167	0
104500	10.159811	0
104700	10.198529	0
104900	10.237321	1
105100	10.276186	0
105300	10.315125	0
105500	10.354137	0
105700	10.393223	0
105900	10.432383	0
106100	10.471616	0
106300	10.510923	0
106500	10.550304	0
106700	10.589758	0
106900	10.629286	0
107100	10.668887	1
107300	10.708562	0
107500	10.748311	0
107700	10.788134	0
107900	10.828030	0
108100	10.867999	0
108300	10.908043	0
108500	10.948159	0
108700	10.988350	1
108900	11.028614	0
109100	11.068952	0
109300	11.109364	0
109500	11.149849	0
109700	11.190407	0
109900	11.231040	0
110100	11.271746	0
110300	11.312525	0
110500	11.353379	0
110700	11.394306	0
110900	11.435306	0
111100	11.476380	0
111300	11.517528	0
111500	11.558750	0
111700	11.600045	1
111900	11.641413	0
112100	11.682856	3
112300	11.724372	2
112500	11.765961	0
112700	11.807625	0
112900	11.849362	0
113100	11.891172	0
113300	11.933056	2
113500	11.975014	196
113700	12.017045	21079
113900	12.059150	1
114100	12.101329	1
114300	12.143582	0
114500	12.185907	2
114700	12.228307	0
114900	12.270780	0
115100	12.313327	1
115300	12.355948	0
115500	12.398642	0
115700	12.441410	0
115900	12.484251	4
116100	12.527166	0
116300	12.570155	0
116500	12.613217	0
116700	12.656353	0
116900	12.699563	7
117100	12.742846	1
117300	12.786203	0
117500	12.829633	0
117700	12.873137	1
117900	12.916715	0
118100	12.960366	10
118300	13.004091	21435
118500	13.047890	25
118700	13.091762	2
118900	13.135708	1
119100	13.179728	1
119300	13.223821	1
119500	13.267988	1
119700	13.312228	3
119900	13.356542	0
120100	13.400930	0
120300	13.445392	1
120500	13.489927	1
120700	13.534535	6
120900	13.579217	1
121100	13.623973	1
121300	13.668803	0
121500	13.713706	1
121700	13.758683	0
121900	13.803733	0
122100	13.848857	0
122300	13.894055	0
122500	13.939326	1
122700	13.984671	12
122900	14.030090	1952
123100	14.075582	1
123300	14.121148	1
123500	14.166788	0
123700	14.212501	1
123900	14.258288	0
124100	14.304148	0
124300	14.350082	2
124500	14.396090	1
124700	14.442171	1
124900	14.488326	1
125100	14.534555	0
125300	14.580857	3
125500	14.627233	0
125700	14.673682	0
125900	14.720205	0
126100	14.766802	0
126300	14.813473	0
126500	14.860217	1
126700	14.907034	1
126900	14.953926	1
127100	15.000891	842
127300	15.047929	1350
127500	15.095041	7
127700	15.142227	2
127900	15.189487	2
128100	15.236820	1
128300	15.284226	0
128500	15.331707	0
128700	15.379261	0
128900	15.426889	0
129100	15.474590	0
129300	15.522365	0
129500	15.570213	1
129700	15.618135	1
129900	15.666131	9
130100	15.714201	0
130300	15.762344	2
130500	15.810561	2
130700	15.858851	0
130900	15.907215	7
131100	15.955653	30
131300	16.004164	31109
131500	16.052749	36
131700	16.101407	2
131900	16.150139	0
132100	16.198945	3
132300	16.247825	0
132500	16.296778	0
132700	16.345804	1
132900	16.394905	0
133100	16.444079	1
133300	16.493326	1
133500	16.542648	0
133700	16.592042	0
133900	16.641511	2
134100	16.691053	1
134300	16.740669	0
134500	16.790358	1
134700	16.840121	0
134900	16.889958	3
135100	16.939868	5
135300	16.989852	17216
135500	17.039910	160
135700	17.090041	5
135900	17.140246	2
136100	17.190524	0
136300	17.240877	1
136500	17.291302	1
136700	17.341802	0
136900	17.392375	0
137100	17.443021	1
137300	17.493742	0
137500	17.544536	1
137700	17.595403	1
137900	17.646344	1
138100	17.697359	9
138300	17.748448	3
138500	17.799610	1
138700	17.850846	0
138900	17.902155	0
139100	17.953538	0
139300	18.004995	60
139500	18.056525	1
139700	18.108129	0
139900	18.159806	0
140100	18.211557	0
140300	18.263382	2
140500	18.315281	0
140700	18.367253	1
140900	18.419299	2
141100	18.471418	0
141300	18.523611	0
141500	18.575877	0
141700	18.628218	1
141900	18.680632	0
142100	18.733119	1
142300	18.785680	0
142500	18.838315	0
142700	18.891024	2
142900	18.943806	1
143100	18.996661	2688
143300	19.049591	25
143500	19.102594	0
143700	19.155670	0
143900	19.208820	0
144100	19.262044	0
144300	19.315342	1
144500	19.368713	0
144700	19.422158	0
144900	19.475676	0
145100	19.529268	0
145300	19.582934	0
145500	19.636673	0
145700	19.690486	0
145900	19.744373	0
146100	19.798333	0
146300	19.852367	1
146500	19.906474	1
146700	19.960655	0
146900	20.014910	0
147100	20.069238	0
147300	20.123640	0
147500	20.178116	0
147700	20.232665	0
147900	20.287288	0
148100	20.341985	0
148300	20.396755	0
148500	20.451599	0
148700	20.506516	0
148900	20.561507	0
149100	20.616572	0
149300	20.671711	0
149500	20.726923	0
149700	20.782208	0
149900	20.837567	0
150100	20.893000	0
150300	20.948507	0
150500	21.004087	0
150700	21.059741	0
150900	21.115468	0
151100	21.171269	0
151300	21.227144	0
151500	21.283092	0
151700	21.339114	0
151900	21.395210	0
152100	21.451379	0
152300	21.507622	0
152500	21.563939	0
152700	21.620329	0
152900	21.676793	0
153100	21.733330	0
153300	21.789941	0
153500	21.846626	0
153700	21.903384	0
153900	21.960216	0
154100	22.017122	1
154300	22.074101	0
154500	22.131154	1
154700	22.188280	0
154900	22.245480	0
155100	22.302754	0
155300	22.360101	0
155500	22.417523	1
155700	22.475017	0
155900	22.532585	0
156100	22.590227	0
156300	22.647943	0
156500	22.705732	0
156700	22.763595	0
156900	22.821532	0
157100	22.879542	0
157300	22.937625	0
157500	22.995783	118
157700	23.054014	1
157900	23.112318	0
158100	23.170697	0
158300	23.229149	0
158500	23.287674	0
158700	23.346273	0
158900	23.404946	0
159100	23.463693	0
159300	23.522513	0
159500	23.581406	18
159700	23.640374	2
159900	23.699415	3
160100	23.758529	1
160300	23.817718	1
160500	23.876980	18
160700	23.936315	54
160900	23.995724	85701
161100	24.055207	157
161300	24.114763	10
161500	24.174394	8
161700	24.234097	6
161900	24.293875	5
162100	24.353726	2
162300	24.413650	2
162500	24.473648	4
162700	24.533720	6
162900	24.593866	28
163100	24.654085	4
163300	24.714378	3
163500	24.774744	6
163700	24.835184	6
163900	24.895698	22
164100	24.956285	122
164300	25.016946	157398
164500	25.077681	177
164700	25.138489	36
164900	25.199371	20
165100	25.260326	9
165300	25.321355	8
165500	25.382458	8
165700	25.443634	3
165900	25.504885	1
166100	25.566208	10
166300	25.627605	5
166500	25.689076	4
166700	25.750621	0
166900	25.812239	3
167100	25.873931	4
167300	25.935696	20
167500	25.997536	62194
167700	26.059448	1285
167900	26.121435	186
168100	26.183495	56
168300	26.245628	32
168500	26.307836	18
168700	26.370116	7
168900	26.432471	10
169100	26.494899	9
169300	26.557401	7
169500	26.619976	2
169700	26.682626	4
169900	26.745348	1
170100	26.808145	2
170300	26.871015	1
170500	26.933958	1
170700	26.996975	1567
170900	27.060066	179
171100	27.123231	10
171300	27.186469	2
171500	27.249781	6
171700	27.313166	2
171900	27.376625	1
172100	27.440158	3
172300	27.503764	2
172500	27.567444	0
172700	27.631198	3
172900	27.695025	0
173100	27.758926	0
173300	27.822900	0
173500	27.886949	1
173700	27.951070	26
173900	28.015266	46
174100	28.079535	0
174300	28.143877	2
174500	28.208294	2
174700	28.272784	1
174900	28.337347	0
175100	28.401985	0
175300	28.466695	0
175500	28.531480	1
175700	28.596338	0
175900	28.661270	0
176100	28.726275	0
176300	28.791354	1
176500	28.856507	0
176700	28.921733	0
176900	28.987033	202
177100	29.052407	4
177300	29.117854	0
177500	29.183375	1
177700	29.248969	0
177900	29.314637	0
178100	29.380379	0
178300	29.446194	0
178500	29.512083	1
178700	29.578046	0
178900	29.644082	0
179100	29.710192	0
179300	29.776375	0
179500	29.842633	1
179700	29.908963	1
179900	29.975368	30
180100	30.041846	3
180300	30.108398	0
180500	30.175023	1
180700	30.241722	1
180900	30.308495	0
181100	30.375341	0
181300	30.442261	1
181500	30.509254	0
181700	30.576321	0
181900	30.643462	1
182100	30.710677	0
182300	30.777965	1
182500	30.845326	1
182700	30.912762	0
182900	30.980271	50
183100	31.047853	225
183300	31.115509	0
183500	31.183239	0
183700	31.251043	0
183900	31.318920	0
184100	31.386871	0
184300	31.454895	0
184500	31.522993	0
184700	31.591165	0
184900	31.659410	0
185100	31.727729	0
185300	31.796122	0
185500	31.864588	0
185700	31.933128	38
185900	32.001741	930
186100	32.070428	1
186300	32.139189	1
186500	32.208023	0
186700	32.276931	0
186900	32.345913	0
187100	32.414968	0
187300	32.484097	1
187500	32.553300	0
187700	32.622576	0
187900	32.691926	0
188100	32.761349	0
188300	32.830846	0
188500	32.900417	1
188700	32.970061	450
188900	33.039779	9
189100	33.109571	1
189300	33.179436	4
189500	33.249375	1
189700	33.319388	0
189900	33.389474	1
190100	33.459633	0
190300	33.529867	0
190500	33.600174	0
190700	33.670555	0
190900	33.741009	0
191100	33.811537	0
191300	33.882139	0
191500	33.952814	16
191700	34.023563	9
191900	34.094385	0
192100	34.165281	0
192300	34.236251	1
192500	34.307295	1
192700	34.378412	1
192900	34.449602	24
193100	34.520867	0
193300	34.592204	6
193500	34.663616	0
193700	34.735101	1
193900	34.806660	7
194100	34.878293	29
194300	34.949999	138900
194500	35.021778	4936
194700	35.093632	201
194900	35.165559	58
195100	35.237560	26
195300	35.309634	14
195500	35.381782	6
195700	35.454003	5
195900	35.526299	5
196100	35.598667	4
196300	35.671110	1
196500	35.743626	5
196700	35.816216	4
196900	35.888879	11
197100	35.961616	7062
197300	36.034427	16823
197500	36.107311	10
197700	36.180269	3
197900	36.253300	2
198100	36.326406	5
198300	36.399584	5
198500	36.472837	8
198700	36.546163	2
198900	36.619563	3
199100	36.693036	4
199300	36.766583	1
199500	36.840204	5
199700	36.913898	102
199900	36.987666	51417
200100	37.061507	257
200300	37.135422	27
200500	37.209411	13
200700	37.283474	13
200900	37.357610	4
201100	37.431819	3
201300	37.506103	5
201500	37.580460	0
201700	37.654890	1
201900	37.729394	1
202100	37.803972	0
202300	37.878624	3
202500	37.953349	21
202700	38.028148	2524
202900	38.103020	1
203100	38.177966	1
203300	38.252986	1
203500	38.328079	1
203700	38.403246	2
203900	38.478487	1
204100	38.553801	2
204300	38.629189	2
204500	38.704650	1
204700	38.780185	1
204900	38.855794	2
205100	38.931476	2
205300	39.007232	1195
205500	39.083062	9
205700	39.158965	0
205900	39.234942	1
206100	39.310993	1
206300	39.387117	0
206500	39.463315	1
206700	39.539586	1
206900	39.615931	3
207100	39.692350	0
207300	39.768842	1
207500	39.845408	1
207700	39.922048	4
207900	39.998761	3473
208100	40.075548	21
208300	40.152409	1
