# Binning: 200 channels
# Deadtime Correction: on
Channel	m/z	Intensity
100	0.000409	2
300	0.000688	13
500	0.001040	1
700	0.001464	0
900	0.001960	0
1100	0.002529	0
1300	0.003170	3
1500	0.003884	5
1700	0.004669	3
1900	0.005527	0
2100	0.006458	0
2300	0.007461	0
2500	0.008536	0
2700	0.009683	2
2900	0.010903	0
3100	0.012196	1
3300	0.013560	1
3500	0.014997	2
3700	0.016506	0
3900	0.018088	0
4100	0.019742	1
4300	0.021468	0
4500	0.023267	0
4700	0.025138	1
4900	0.027081	0
5100	0.029097	0
5300	0.031185	1
5500	0.033345	2
5700	0.035578	1
5900	0.037883	2
6100	0.040260	0
6300	0.042710	1
6500	0.045232	1
6700	0.047827	1
6900	0.050493	0
7100	0.053232	0
7300	0.056044	0
7500	0.058928	0
7700	0.061884	2
7900	0.064913	0
8100	0.068013	0
8300	0.071187	0
8500	0.074432	0
8700	0.077750	0
8900	0.081140	2
9100	0.084603	3
9300	0.088138	0
9500	0.091745	0
9700	0.095425	0
9900	0.099177	0
10100	0.103001	0
10300	0.106898	0
10500	0.110867	0
10700	0.114908	0
10900	0.119022	0
11100	0.123208	0
11300	0.127467	0
11500	0.131797	1
11700	0.136200	1
11900	0.140676	1
12100	0.145224	1
12300	0.149844	1
12500	0.154536	1
12700	0.159301	0
12900	0.164138	1
13100	0.169048	0
13300	0.174030	1
13500	0.179084	0
13700	0.184211	0
13900	0.189409	0
14100	0.194681	0
14300	0.200024	0
14500	0.205440	0
14700	0.210929	0
14900	0.216489	0
15100	0.222122	0
15300	0.227828	0
15500	0.233605	0
15700	0.239455	1
15900	0.245378	0
16100	0.251373	1
16300	0.257440	0
16500	0.263579	0
16700	0.269791	0
16900	0.276075	0
17100	0.282431	0
17300	0.288860	0
17500	0.295361	1
17700	0.301935	0
17900	0.308581	1
18100	0.315299	0
18300	0.322089	0
18500	0.328952	0
18700	0.335888	1
18900	0.342895	1
19100	0.349975	0
19300	0.357127	0
19500	0.364352	1
19700	0.371649	0
19900	0.379018	1
20100	0.386460	0
20300	0.393974	1
20500	0.401560	0
20700	0.409219	1
20900	0.416950	0
21100	0.424754	1
21300	0.432629	0
21500	0.440577	2
21700	0.448598	1
21900	0.456691	0
22100	0.464856	0
22300	0.473093	0
22500	0.481403	1
22700	0.489785	0
22900	0.498240	0
23100	0.506767	0
23300	0.515366	0
23500	0.524037	0
23700	0.532781	0
23900	0.541597	0
24100	0.550486	1
24300	0.559447	0
24500	0.568480	0
24700	0.577586	0
24900	0.586764	1
25100	0.596014	0
25300	0.605337	1
25500	0.614732	1
25700	0.624199	1
25900	0.633739	0
26100	0.643351	1
26300	0.653036	1
26500	0.662792	1
26700	0.672621	0
26900	0.682523	0
27100	0.692497	0
27300	0.702543	0
27500	0.712661	1
27700	0.722852	0
27900	0.733115	0
28100	0.743451	0
28300	0.753859	0
28500	0.764339	1
28700	0.774891	0
28900	0.785516	0
29100	0.796214	0
29300	0.806983	1
29500	0.817825	0
29700	0.828739	0
29900	0.839726	0
30100	0.850785	1
30300	0.861916	1
30500	0.873120	0
30700	0.884396	0
30900	0.895745	5
31100	0.907165	3
31300	0.918658	74
31500	0.930224	80
31700	0.941862	11
31900	0.953572	13
32100	0.965354	5
32300	0.977209	4
32500	0.989136	30
32700	1.001136	922
32900	1.013207	204068
33100	1.025352	175
33300	1.037568	33
33500	1.049857	22
33700	1.062218	13
33900	1.074652	5
34100	1.087158	10
34300	1.099736	8
34500	1.112387	3
34700	1.125110	2
34900	1.137905	0
35100	1.150773	3
35300	1.163713	1
35500	1.176725	1
35700	1.189810	2
35900	1.202967	0
36100	1.216196	0
36300	1.229498	1
36500	1.242872	2
36700	1.256318	1
36900	1.269837	3
37100	1.283428	0
37300	1.297092	2
37500	1.310827	0
37700	1.324636	3
37900	1.338516	1
38100	1.352469	3
38300	1.366494	0
38500	1.380592	0
38700	1.394762	1
38900	1.409004	0
39100	1.423318	0
39300	1.437705	1
39500	1.452165	0
39700	1.466696	1
39900	1.481300	2
40100	1.495977	0
40300	1.510725	2
40500	1.525546	3
40700	1.540440	1
40900	1.555405	0
41100	1.570443	4
41300	1.585554	1
41500	1.600736	1
41700	1.615992	1
41900	1.631319	0
42100	1.646719	1
42300	1.662191	0
42500	1.677735	0
42700	1.693352	0
42900	1.709041	1
43100	1.724803	0
43300	1.740637	0
43500	1.756543	0
43700	1.772522	0
43900	1.788572	0
44100	1.804696	1
44300	1.820891	0
44500	1.837159	0
44700	1.853500	0
44900	1.869912	0
45100	1.886397	0
45300	1.902954	2
45500	1.919584	0
45700	1.936286	1
45900	1.953061	1
46100	1.969907	1
46300	1.986826	1
46500	2.003818	1
46700	2.020881	19
46900	2.038018	2
47100	2.055226	0
47300	2.072507	0
47500	2.089860	2
47700	2.107285	0
47900	2.124783	0
48100	2.142353	0
48300	2.159996	0
48500	2.177711	1
48700	2.195498	0
48900	2.213358	1
49100	2.231290	0
49300	2.249294	0
49500	2.267370	2
49700	2.285519	2
49900	2.303741	0
50100	2.322034	0
50300	2.340400	1
50500	2.358839	1
50700	2.377349	0
50900	2.395932	0
51100	2.414588	0
51300	2.433315	0
51500	2.452116	2
51700	2.470988	0
51900	2.489933	0
52100	2.508950	0
52300	2.528039	0
52500	2.547201	0
52700	2.566435	0
52900	2.585742	0
53100	2.605121	2
53300	2.624572	0
53500	2.644095	0
53700	2.663691	2
53900	2.683359	1
54100	2.703100	2
54300	2.722913	2
54500	2.742798	2
54700	2.762756	0
54900	2.782786	0
55100	2.802888	0
55300	2.823063	0
55500	2.843310	0
55700	2.863629	2
55900	2.884021	0
56100	2.904485	0
56300	2.925021	0
56500	2.945630	1
56700	2.966311	0
56900	2.987064	0
57100	3.007890	0
57300	3.028788	1
57500	3.049759	2
57700	3.070802	1
57900	3.091917	1
58100	3.113104	1
58300	3.134364	1
58500	3.155696	0
58700	3.177101	1
58900	3.198578	0
59100	3.220127	0
59300	3.241749	1
59500	3.263442	0
59700	3.285209	0
59900	3.307047	0
60100	3.328958	2
60300	3.350942	0
60500	3.372997	0
60700	3.395125	1
60900	3.417326	1
61100	3.439598	1
61300	3.461943	1
61500	3.484361	0
61700	3.506851	0
61900	3.529413	0
62100	3.552047	0
62300	3.574754	2
62500	3.597533	0
62700	3.620385	0
62900	3.643308	1
63100	3.666305	0
63300	3.689373	0
63500	3.712514	0
63700	3.735727	0
63900	3.759013	0
64100	3.782371	1
64300	3.805801	0
64500	3.829303	0
64700	3.852878	0
64900	3.876526	2
65100	3.900245	0
65300	3.924037	0
65500	3.947902	0
65700	3.971838	0
65900	3.995847	0
66100	4.019929	1
66300	4.044082	0
66500	4.068308	0
66700	4.092607	0
66900	4.116978	1
67100	4.141421	0
67300	4.165936	0
67500	4.190524	1
67700	4.215184	0
67900	4.239917	0
68100	4.264721	0
68300	4.289599	0
68500	4.314548	1
68700	4.339570	0
68900	4.364664	0
69100	4.389831	1
69300	4.415070	0
69500	4.440381	0
69700	4.465765	0
69900	4.491220	1
70100	4.516749	0
70300	4.542349	0
70500	4.568022	0
70700	4.593768	0
70900	4.619585	0
71100	4.645475	0
71300	4.671438	0
71500	4.697473	0
71700	4.723580	0
71900	4.749759	0
72100	4.776011	1
72300	4.802335	0
72500	4.828731	1
72700	4.855200	0
72900	4.881741	0
73100	4.908355	0
73300	4.935041	2
73500	4.961799	0
73700	4.988629	0
73900	5.015532	1
74100	5.042508	1
74300	5.069555	0
74500	5.096675	0
74700	5.123867	1
74900	5.151132	0
75100	5.178469	1
75300	5.205878	0
75500	5.233360	0
75700	5.260914	0
75900	5.288540	0
76100	5.316239	0
76300	5.344010	0
76500	5.371853	0
76700	5.399769	0
76900	5.427757	0
77100	5.455818	0
77300	5.483950	0
77500	5.512155	0
77700	5.540433	0
77900	5.568783	0
78100	5.597205	0
78300	5.625699	0
78500	5.654266	0
78700	5.682905	1
78900	5.711617	0
79100	5.740401	0
79300	5.769257	0
79500	5.798186	0
79700	5.827187	0
79900	5.856260	0
80100	5.885405	0
80300	5.914623	0
80500	5.943914	0
80700	5.973276	0
80900	6.002711	0
81100	6.032219	2
81300	6.061799	2
81500	6.091451	1
81700	6.121175	0
81900	6.150972	1
82100	6.180841	1
82300	6.210782	0
82500	6.240796	0
82700	6.270882	1
82900	6.301041	0
83100	6.331271	0
83300	6.361575	0
83500	6.391950	0
83700	6.422398	0
83900	6.452918	0
84100	6.483511	0
84300	6.514176	0
84500	6.544913	3
84700	6.575723	0
84900	6.606604	1
85100	6.637559	0
85300	6.668585	0
85500	6.699684	0
85700	6.730856	1
85900	6.762099	0
86100	6.793415	0
86300	6.824804	0
86500	6.856264	0
86700	6.887798	0
86900	6.919403	0
87100	6.951081	0
87300	6.982831	0
87500	7.014653	0
87700	7.046548	0
87900	7.078515	0
88100	7.110555	0
88300	7.142666	2
88500	7.174851	0
88700	7.207107	0
88900	7.239436	2
89100	7.271837	0
89300	7.304311	0
89500	7.336857	0
89700	7.369475	1
89900	7.402166	1
90100	7.434929	1
90300	7.467764	2
90500	7.500671	0
90700	7.533651	0
90900	7.566704	1
91100	7.599828	0
91300	7.633026	0
91500	7.666295	0
91700	7.699637	0
91900	7.733051	0
92100	7.766537	1
92300	7.800096	1
92500	7.833727	1
92700	7.867430	1
92900	7.901206	0
93100	7.935054	0
93300	7.968975	0
93500	8.002968	0
93700	8.037033	0
93900	8.071170	0
94100	8.105380	1
94300	8.139663	0
94500	8.174017	1
94700	8.208444	1
94900	8.242943	2
95100	8.277515	0
95300	8.312159	1
95500	8.346875	1
95700	8.381664	0
95900	8.416525	0
96100	8.451458	0
96300	8.486464	1
96500	8.521542	0
96700	8.556692	0
96900	8.591915	0
97100	8.627210	0
97300	8.662578	1
97500	8.698017	0
97700	8.733529	0
97900	8.769114	0
98100	8.804771	0
98300	8.840500	0
98500	8.876301	0
98700	8.912175	1
98900	8.948121	1
99100	8.984140	0
99300	9.020231	0
99500	9.056394	0
99700	9.092630	0
99900	9.128938	0
100100	9.165318	0
100300	9.201771	0
100500	9.238296	0
100700	9.274893	0
100900	9.311562	0
101100	9.348304	0
101300	9.385119	0
101500	9.422006	0
101700	9.458965	1
101900	9.495996	0
102100	9.533100	0
102300	9.570276	0
102500	9.607524	0
102700	9.644845	0
102900	9.682238	0
103100	9.719704	0
103300	9.757241	0
103500	9.794852	0
103700	9.832534	0
103900	9.870289	1
104100	9.908116	0
104300	9.946016	1
104500	9.983988	1
104700	10.022032	0
104900	10.060149	0
105100	10.098337	1
105300	10.136599	0
105500	10.174932	0
105700	10.213338	0
105900	10.251817	1
106100	10.290367	0
106300	10.328990	2
106500	10.367686	0
106700	10.406453	0
106900	10.445294	0
107100	10.484206	0
107300	10.523191	0
107500	10.562248	0
107700	10.601377	1
107900	10.640579	0
108100	10.679853	0
108300	10.719200	1
108500	10.758618	1
108700	10.798110	1
108900	10.837673	1
109100	10.877309	0
109300	10.917017	1
109500	10.956798	0
109700	10.996651	6
109900	11.036576	2
110100	11.076574	0
110300	11.116644	0
110500	11.156786	1
110700	11.197000	0
110900	11.237287	0
111100	11.277647	0
111300	11.318078	0
111500	11.358583	0
111700	11.399159	1
111900	11.439808	0
112100	11.480529	1
112300	11.521322	1
112500	11.562188	1
112700	11.603126	0
112900	11.644136	0
113100	11.685219	1
113300	11.726374	3
113500	11.767602	0
113700	11.808902	1
113900	11.850274	0
114100	11.891718	2
114300	11.933235	2
114500	11.974825	134
114700	12.016486	19880
114900	12.058220	4
115100	12.100026	2
115300	12.141905	1
115500	12.183856	2
115700	12.225879	1
115900	12.267975	1
116100	12.310143	0
116300	12.352383	2
116500	12.394696	1
116700	12.437081	1
116900	12.479538	1
117100	12.522068	0
117300	12.564670	2
117500	12.607345	0
117700	12.650091	0
117900	12.692910	9
118100	12.735802	2
118300	12.778766	5
118500	12.821802	3
118700	12.864910	3
118900	12.908091	0
119100	12.951344	3
119300	12.994670	26487
119500	13.038068	661
119700	13.081538	1
119900	13.125081	1
120100	13.168696	2
120300	13.212383	1
120500	13.256143	3
120700	13.299974	1
120900	13.343879	1
121100	13.387855	1
121300	13.431904	3
121500	13.476026	0
121700	13.520220	0
121900	13.564486	9
122100	13.608824	0
122300	13.653235	1
122500	13.697718	2
122700	13.742273	0
122900	13.786901	2
123100	13.831601	1
123300	13.876374	2
123500	13.921218	2
123700	13.966136	1
123900	14.011125	3455
124100	14.056187	12
124300	14.101321	2
124500	14.146528	0
124700	14.191807	0
124900	14.237158	1
125100	14.282581	1
125300	14.328077	2
125500	14.373646	2
125700	14.419286	1
125900	14.464999	1
126100	14.510785	1
126300	14.556642	0
126500	14.602572	3
126700	14.648575	2
126900	14.694649	2
127100	14.740796	1
127300	14.787016	1
127500	14.833308	1
127700	14.879672	0
127900	14.926108	2
128100	14.972617	1
128300	15.019198	3575
128500	15.065852	43
128700	15.112577	10
128900	15.159376	3
129100	15.206246	0
129300	15.253189	1
129500	15.300204	0
129700	15.347292	2
129900	15.394452	1
130100	15.441684	0
130300	15.488989	2
130500	15.536365	1
130700	15.583815	0
130900	15.631336	8
131100	15.678930	17
131300	15.726597	0
131500	15.774335	4
131700	15.822146	2
131900	15.870030	0
132100	15.917986	19
132300	15.966014	527
132500	16.014114	64227
132700	16.062287	25
132900	16.110532	2
133100	16.158849	4
133300	16.207239	0
133500	16.255701	4
133700	16.304236	2
133900	16.352843	2
134100	16.401522	0
134300	16.450273	2
134500	16.499097	1
134700	16.547993	1
134900	16.596962	1
135100	16.646003	11
135300	16.695116	1
135500	16.744302	2
135700	16.793560	4
135900	16.842890	1
136100	16.892293	3
136300	16.941768	4
136500	16.991315	39725
136700	17.040935	420
136900	17.090627	14
137100	17.140391	6
137300	17.190228	2
137500	17.240137	2
137700	17.290118	2
137900	17.340172	4
138100	17.390298	2
138300	17.440497	0
138500	17.490768	0
138700	17.541111	1
138900	17.591526	2
139100	17.642014	1
139300	17.692574	9
139500	17.743207	5
139700	17.793912	3
139900	17.844689	0
140100	17.895539	0
140300	17.946461	0
140500	17.997455	127
140700	18.048521	0
140900	18.099660	0
141100	18.150872	2
141300	18.202155	1
141500	18.253511	2
141700	18.304940	1
141900	18.356440	1
142100	18.408013	0
142300	18.459659	0
142500	18.511377	0
142700	18.563167	0
142900	18.615029	1
143100	18.666964	1
143300	18.718971	0
143500	18.771051	0
143700	18.823202	0
143900	18.875427	2
144100	18.927723	0
144300	18.980092	3065
144500	19.032533	401
144700	19.085047	11
144900	19.137633	5
145100	19.190291	4
145300	19.243021	1
145500	19.295824	0
145700	19.348700	0
145900	19.401647	0
146100	19.454667	0
146300	19.507760	0
146500	19.560924	0
146700	19.614161	1
146900	19.667471	0
147100	19.720852	0
147300	19.774306	0
147500	19.827833	0
147700	19.881432	0
147900	19.935103	0
148100	19.988846	0
148300	20.042662	1
148500	20.096550	0
148700	20.150510	2
148900	20.204543	1
149100	20.258648	1
149300	20.312826	1
149500	20.367076	0
149700	20.421398	0
149900	20.475793	1
150100	20.530260	1
150300	20.584799	0
150500	20.639410	0
150700	20.694094	0
150900	20.748851	1
151100	20.803679	0
151300	20.858580	0
151500	20.913554	1
151700	20.968599	1
151900	21.023717	0
152100	21.078908	0
152300	21.134170	1
152500	21.189506	0
152700	21.244913	0
152900	21.300393	0
153100	21.355945	0
153300	21.411569	0
153500	21.467266	1
153700	21.523035	0
153900	21.578877	0
154100	21.634791	1
154300	21.690777	0
154500	21.746835	0
154700	21.802966	4
154900	21.859169	0
155100	21.915445	0
155300	21.971793	0
155500	22.028213	0
155700	22.084706	2
155900	22.141271	2
156100	22.197908	0
156300	22.254618	0
156500	22.311400	3
156700	22.368254	0
156900	22.425181	0
157100	22.482180	0
157300	22.539251	1
157500	22.596395	0
157700	22.653611	1
157900	22.710899	2
158100	22.768260	0
158300	22.825693	0
158500	22.883199	0
158700	22.940776	0
158900	22.998427	76
159100	23.056149	0
159300	23.113944	1
159500	23.171811	0
159700	23.229751	1
159900	23.287763	0
160100	23.345847	0
160300	23.404003	1
160500	23.462232	0
160700	23.520534	0
160900	23.578907	8
161100	23.637353	3
161300	23.695872	1
161500	23.754462	2
161700	23.813125	1
161900	23.871861	3
162100	23.930668	26
162300	23.989548	71536
162500	24.048501	345
162700	24.107525	18
162900	24.166623	8
163100	24.225792	1
163300	24.285034	3
163500	24.344348	4
163700	24.403734	3
163900	24.463193	1
164100	24.522724	1
164300	24.582328	21
164500	24.642004	2
164700	24.701752	6
164900	24.761572	4
165100	24.821465	3
165300	24.881431	13
165500	24.941468	29
165700	25.001578	119865
165900	25.061760	769
166100	25.122015	58
166300	25.182342	25
166500	25.242741	18
166700	25.303213	10
166900	25.363757	12
167100	25.424373	7
167300	25.485062	5
167500	25.545823	7
167700	25.606657	7
167900	25.667562	5
168100	25.728540	5
168300	25.789591	4
168500	25.850714	2
168700	25.911909	23
168900	25.973176	24805
169100	26.034516	65574
169300	26.095928	1128
169500	26.157413	345
169700	26.218970	158
169900	26.280599	70
170100	26.342300	48
170300	26.404074	50
170500	26.465921	27
170700	26.527839	26
170900	26.589830	19
171100	26.651893	15
171300	26.714029	10
171500	26.776237	7
171700	26.838517	8
171900	26.900870	8
172100	26.963295	23
172300	27.025793	3382
172500	27.088362	22
172700	27.151004	15
172900	27.213719	7
173100	27.276506	5
173300	27.339365	0
173500	27.402296	5
173700	27.465300	4
173900	27.528376	3
174100	27.591525	4
174300	27.654745	1
174500	27.718039	4
174700	27.781404	1
174900	27.844842	2
175100	27.908352	0
175300	27.971935	194
175500	28.035590	68
175700	28.099317	4
175900	28.163117	0
176100	28.226988	0
176300	28.290933	3
176500	28.354949	1
176700	28.419038	2
176900	28.483200	0
177100	28.547433	0
177300	28.611740	0
177500	28.676118	0
177700	28.740569	1
177900	28.805092	0
178100	28.869687	0
178300	28.934355	19
178500	28.999095	1194
178700	29.063907	9
178900	29.128792	1
179100	29.193749	2
179300	29.258779	1
179500	29.323881	1
179700	29.389055	1
179900	29.454302	3
180100	29.519620	1
180300	29.585012	0
180500	29.650475	0
180700	29.716011	2
180900	29.781619	2
181100	29.847300	0
181300	29.913053	2
181500	29.978878	76
181700	30.044776	6
181900	30.110746	1
182100	30.176788	0
182300	30.242903	0
182500	30.309090	0
182700	30.375350	1
182900	30.441681	0
183100	30.508085	2
183300	30.574562	3
183500	30.641111	0
183700	30.707732	2
183900	30.774425	2
184100	30.841191	1
184300	30.908029	4
184500	30.974940	105
184700	31.041923	1114
184900	31.108978	6
185100	31.176105	0
185300	31.243305	0
185500	31.310577	1
185700	31.377922	0
185900	31.445339	1
186100	31.512828	0
186300	31.580390	1
186500	31.648024	1
186700	31.715730	0
186900	31.783509	0
187100	31.851360	1
187300	31.919283	1
187500	31.987279	2565
187700	32.055347	16
187900	32.123487	3
188100	32.191700	2
188300	32.259985	0
188500	32.328343	0
188700	32.396772	1
188900	32.465275	1
189100	32.533849	0
189300	32.602496	0
189500	32.671215	0
189700	32.740007	2
189900	32.808870	0
190100	32.877807	2
190300	32.946815	987
190500	33.015896	1058
190700	33.085049	12
190900	33.154275	3
191100	33.223573	1
191300	33.292943	2
191500	33.362386	3
191700	33.431901	1
191900	33.501488	0
192100	33.571148	1
192300	33.640880	0
192500	33.710684	1
192700	33.780561	4
192900	33.850510	1
193100	33.920532	2
193300	33.990625	79
193500	34.060791	2
193700	34.131030	2
193900	34.201341	1
194100	34.271724	1
194300	34.342179	0
194500	34.412707	1
194700	34.483307	15
194900	34.553980	2
195100	34.624725	3
195300	34.695542	0
195500	34.766431	1
195700	34.837393	27
195900	34.908428	82
196100	34.979534	118269
196300	35.050713	1151
196500	35.121965	231
196700	35.193288	75
196900	35.264684	47
197100	35.336153	18
197300	35.407693	15
197500	35.479306	11
197700	35.550992	9
197900	35.622749	4
198100	35.694579	7
198300	35.766482	2
198500	35.838457	2
198700	35.910504	8
198900	35.982623	21655
199100	36.054815	246
199300	36.127079	8
199500	36.199416	5
199700	36.271825	3
199900	36.344306	2
200100	36.416859	4
200300	36.489485	4
200500	36.562183	3
200700	36.634954	4
200900	36.707797	0
201100	36.780712	2
201300	36.853700	11
201500	36.926760	4376
201700	36.999892	40618
201900	37.073097	227
202100	37.146374	64
202300	37.219723	25
202500	37.293145	13
202700	37.366639	6
202900	37.440205	3
203100	37.513844	3
203300	37.587555	0
203500	37.661339	8
203700	37.735194	2
203900	37.809122	0
204100	37.883123	1
204300	37.957196	70
204500	38.031341	3757
204700	38.105558	6
204900	38.179848	3
205100	38.254210	3
205300	38.328645	0
205500	38.403152	1
205700	38.477731	0
205900	38.552383	6
206100	38.627107	0
206300	38.701903	0
206500	38.776772	0
206700	38.851713	0
206900	38.926726	4
207100	39.001812	2173
207300	39.076970	120
207500	39.152200	4
207700	39.227503	7
207900	39.302878	1
