# Binning: 200 channels
# Deadtime Correction: on
Channel	m/z	Intensity
100	0.000231	1
300	0.000453	379
500	0.000747	3
700	0.001116	0
900	0.001558	0
1100	0.002073	0
1300	0.002662	7
1500	0.003325	4
1700	0.004061	1
1900	0.004871	0
2100	0.005754	0
2300	0.006711	0
2500	0.007741	0
2700	0.008845	0
2900	0.010023	0
3100	0.011274	0
3300	0.012598	0
3500	0.013997	0
3700	0.015468	0
3900	0.017014	0
4100	0.018633	0
4300	0.020325	0
4500	0.022091	0
4700	0.023930	0
4900	0.025844	0
5100	0.027830	0
5300	0.029890	0
5500	0.032024	0
5700	0.034231	0
5900	0.036512	0
6100	0.038867	0
6300	0.041295	0
6500	0.043796	0
6700	0.046371	0
6900	0.049020	0
7100	0.051742	0
7300	0.054538	0
7500	0.057407	0
7700	0.060350	0
7900	0.063367	0
8100	0.066457	0
8300	0.069620	0
8500	0.072857	0
8700	0.076168	0
8900	0.079552	0
9100	0.083010	0
9300	0.086541	0
9500	0.090146	0
9700	0.093825	0
9900	0.097577	0
10100	0.101402	0
10300	0.105301	0
10500	0.109274	0
10700	0.113320	0
10900	0.117440	0
11100	0.121633	0
11300	0.125900	0
11500	0.130241	0
11700	0.134655	0
11900	0.139142	0
12100	0.143703	0
12300	0.148338	0
12500	0.153046	0
12700	0.157828	0
12900	0.162683	0
13100	0.167612	0
13300	0.172615	0
13500	0.177691	0
13700	0.182841	0
13900	0.188064	0
14100	0.193360	1
14300	0.198731	0
14500	0.204174	0
14700	0.209692	0
14900	0.215283	0
15100	0.220947	0
15300	0.226685	0
15500	0.232497	0
15700	0.238382	0
15900	0.244341	0
16100	0.250373	0
16300	0.256479	0
16500	0.262658	0
16700	0.268911	0
16900	0.275238	0
17100	0.281638	0
17300	0.288111	0
17500	0.294659	0
17700	0.301279	0
17900	0.307974	0
18100	0.314741	0
18300	0.321583	0
18500	0.328498	0
18700	0.335486	0
18900	0.342548	0
19100	0.349684	0
19300	0.356893	0
19500	0.364176	0
19700	0.371532	0
19900	0.378962	0
20100	0.386466	0
20300	0.394043	0
20500	0.401693	0
20700	0.409417	0
20900	0.417215	0
21100	0.425086	0
21300	0.433031	0
21500	0.441049	0
21700	0.449141	0
21900	0.457306	0
22100	0.465545	0
22300	0.473858	0
22500	0.482244	0
22700	0.490704	0
22900	0.499237	0
23100	0.507844	0
23300	0.516524	0
23500	0.525278	0
23700	0.534105	0
23900	0.543006	0
24100	0.551981	0
24300	0.561029	0
24500	0.570151	0
24700	0.579346	0
24900	0.588615	0
25100	0.597957	0
25300	0.607373	0
25500	0.616862	0
25700	0.626425	1
25900	0.636062	0
26100	0.645772	0
26300	0.655556	0
26500	0.665413	0
26700	0.675344	0
26900	0.685348	0
27100	0.695426	0
27300	0.705578	0
27500	0.715803	0
27700	0.726101	0
27900	0.736473	0
28100	0.746919	0
28300	0.757438	0
28500	0.768031	0
28700	0.778697	0
28900	0.789437	0
29100	0.800251	0
29300	0.811138	0
29500	0.822099	0
29700	0.833133	0
29900	0.844240	0
30100	0.855422	0
30300	0.866676	0
30500	0.878005	0
30700	0.889407	0
30900	0.900882	1
31100	0.912431	0
31300	0.924054	0
31500	0.935750	0
31700	0.947520	0
31900	0.959363	2
32100	0.971280	12
32300	0.983270	28
32500	0.995334	8
32700	1.007472	830157
32900	1.019683	290
33100	1.031968	34
33300	1.044326	28
33500	1.056757	22
33700	1.069263	19
33900	1.081842	13
34100	1.094494	13
34300	1.107220	8
34500	1.120020	8
34700	1.132893	2
34900	1.145839	3
35100	1.158859	1
35300	1.171953	0
35500	1.185121	0
35700	1.198361	1
35900	1.211676	1
36100	1.225064	2
36300	1.238525	0
36500	1.252060	1
36700	1.265669	1
36900	1.279351	1
37100	1.293107	0
37300	1.306936	0
37500	1.320839	0
37700	1.334816	0
37900	1.348866	0
38100	1.362989	0
38300	1.377186	1
38500	1.391457	0
38700	1.405801	0
38900	1.420219	0
39100	1.434710	0
39300	1.449275	0
39500	1.463914	0
39700	1.478626	0
39900	1.493411	0
40100	1.508270	0
40300	1.523203	0
40500	1.538209	0
40700	1.553289	0
40900	1.568442	0
41100	1.583669	0
41300	1.598970	0
41500	1.614344	0
41700	1.629791	0
41900	1.645313	0
42100	1.660907	0
42300	1.676576	0
42500	1.692317	0
42700	1.708133	0
42900	1.724022	0
43100	1.739984	0
43300	1.756020	0
43500	1.772130	0
43700	1.788313	1
43900	1.804570	0
44100	1.820900	0
44300	1.837304	0
44500	1.853781	0
44700	1.870332	0
44900	1.886957	0
45100	1.903655	0
45300	1.920426	0
45500	1.937271	0
45700	1.954190	0
45900	1.971182	0
46100	1.988248	0
46300	2.005388	0
46500	2.022601	80
46700	2.039887	0
46900	2.057247	0
47100	2.074681	0
47300	2.092188	0
47500	2.109769	0
47700	2.127423	0
47900	2.145151	0
48100	2.162952	0
48300	2.180827	0
48500	2.198776	0
48700	2.216798	0
48900	2.234893	0
49100	2.253063	0
49300	2.271305	0
49500	2.289622	0
49700	2.308011	0
49900	2.326475	0
50100	2.345012	0
50300	2.363622	0
50500	2.382307	0
50700	2.401064	0
50900	2.419895	0
51100	2.438800	0
51300	2.457778	0
51500	2.476830	0
51700	2.495956	0
51900	2.515155	0
52100	2.534427	0
52300	2.553773	0
52500	2.573193	0
52700	2.592686	0
52900	2.612253	0
53100	2.631893	0
53300	2.651607	0
53500	2.671395	0
53700	2.691256	0
53900	2.711190	0
54100	2.731198	0
54300	2.751280	0
54500	2.771435	0
54700	2.791664	0
54900	2.811966	0
55100	2.832342	0
55300	2.852792	1
55500	2.873315	0
55700	2.893911	0
55900	2.914582	0
56100	2.935325	0
56300	2.956142	0
56500	2.977033	0
56700	2.997998	0
56900	3.019036	0
57100	3.040147	0
57300	3.061332	0
57500	3.082591	0
57700	3.103923	0
57900	3.125329	0
58100	3.146808	0
58300	3.168361	0
58500	3.189987	0
58700	3.211687	0
58900	3.233460	0
59100	3.255307	0
59300	3.277228	0
59500	3.299222	2
59700	3.321290	0
59900	3.343431	0
60100	3.365646	0
60300	3.387934	0
60500	3.410296	0
60700	3.432732	0
60900	3.455241	0
61100	3.477824	0
61300	3.500480	1
61500	3.523209	0
61700	3.546013	0
61900	3.568890	0
62100	3.591840	0
62300	3.614864	0
62500	3.637961	1
62700	3.661133	1
62900	3.684377	0
63100	3.707695	6
63300	3.731087	0
63500	3.754552	0
63700	3.778091	0
63900	3.801704	0
64100	3.825390	0
64300	3.849149	0
64500	3.872982	0
64700	3.896889	0
64900	3.920869	0
65100	3.944923	0
65300	3.969050	0
65500	3.993251	0
65700	4.017525	0
65900	4.041873	0
66100	4.066295	0
66300	4.090790	0
66500	4.115359	0
66700	4.140001	0
66900	4.164717	0
67100	4.189506	0
67300	4.214369	0
67500	4.239305	0
67700	4.264315	0
67900	4.289399	1
68100	4.314556	0
68300	4.339787	0
68500	4.365091	0
68700	4.390469	0
68900	4.415920	0
69100	4.441445	0
69300	4.467043	1
69500	4.492715	0
69700	4.518461	0
69900	4.544280	0
70100	4.570173	0
70300	4.596139	0
70500	4.622179	0
70700	4.648292	0
70900	4.674479	0
71100	4.700740	0
71300	4.727074	1
71500	4.753481	0
71700	4.779962	0
71900	4.806517	0
72100	4.833145	0
72300	4.859847	0
72500	4.886622	0
72700	4.913471	0
72900	4.940394	0
73100	4.967390	0
73300	4.994460	0
73500	5.021603	0
73700	5.048819	0
73900	5.076110	1
74100	5.103473	0
74300	5.130911	0
74500	5.158422	0
74700	5.186006	0
74900	5.213664	0
75100	5.241396	1
75300	5.269201	0
75500	5.297080	0
75700	5.325032	1
75900	5.353058	0
76100	5.381157	1
76300	5.409330	1
76500	5.437577	0
76700	5.465897	0
76900	5.494291	0
77100	5.522758	0
77300	5.551298	0
77500	5.579913	0
77700	5.608601	0
77900	5.637362	0
78100	5.666197	0
78300	5.695106	0
78500	5.724088	0
78700	5.753143	0
78900	5.782272	1
79100	5.811475	1
79300	5.840751	1
79500	5.870101	0
79700	5.899525	0
79900	5.929022	0
80100	5.958592	0
80300	5.988236	0
80500	6.017954	0
80700	6.047745	0
80900	6.077610	0
81100	6.107548	1
81300	6.137560	0
81500	6.167646	0
81700	6.197805	0
81900	6.228037	0
82100	6.258343	0
82300	6.288723	0
82500	6.319176	0
82700	6.349703	1
82900	6.380303	0
83100	6.410977	0
83300	6.441725	1
83500	6.472546	0
83700	6.503440	0
83900	6.534408	1
84100	6.565450	0
84300	6.596565	1
84500	6.627754	1
84700	6.659016	0
84900	6.690352	0
85100	6.721762	1
85300	6.753245	0
85500	6.784801	0
85700	6.816432	1
85900	6.848135	0
86100	6.879912	0
86300	6.911763	0
86500	6.943688	0
86700	6.975686	1
86900	7.007757	0
87100	7.039902	0
87300	7.072121	1
87500	7.104413	1
87700	7.136779	1
87900	7.169218	0
88100	7.201731	1
88300	7.234317	0
88500	7.266977	0
88700	7.299710	1
88900	7.332517	0
89100	7.365398	0
89300	7.398352	1
89500	7.431380	0
89700	7.464481	0
89900	7.497656	0
90100	7.530904	0
90300	7.564226	0
90500	7.597622	0
90700	7.631091	1
90900	7.664634	0
91100	7.698250	0
91300	7.731940	0
91500	7.765703	0
91700	7.799540	0
91900	7.833450	0
92100	7.867434	0
92300	7.901492	0
92500	7.935623	0
92700	7.969827	0
92900	8.004105	0
93100	8.038457	0
93300	8.072882	0
93500	8.107381	0
93700	8.141954	0
93900	8.176600	0
94100	8.211319	0
94300	8.246112	0
94500	8.280979	0
94700	8.315919	0
94900	8.350933	0
95100	8.386020	0
95300	8.421181	0
95500	8.456416	0
95700	8.491724	1
95900	8.527105	0
96100	8.562560	0
96300	8.598089	0
96500	8.633691	0
96700	8.669367	0
96900	8.705116	0
97100	8.740939	0
97300	8.776836	0
97500	8.812806	0
97700	8.848849	0
97900	8.884966	0
98100	8.921157	0
98300	8.957421	0
98500	8.993759	0
98700	9.030170	0
98900	9.066655	0
99100	9.103214	0
99300	9.139846	0
99500	9.176551	0
99700	9.213330	0
99900	9.250183	0
100100	9.287109	0
100300	9.324109	0
100500	9.361182	0
100700	9.398329	0
100900	9.435550	0
101100	9.472844	0
101300	9.510211	0
101500	9.547653	0
101700	9.585167	0
101900	9.622756	0
102100	9.660417	0
102300	9.698153	0
102500	9.735962	0
102700	9.773844	0
102900	9.811800	0
103100	9.849830	0
103300	9.887933	0
103500	9.926110	0
103700	9.964360	0
103900	10.002684	1
104100	10.041081	0
104300	10.079552	0
104500	10.118097	0
104700	10.156715	0
104900	10.195406	0
105100	10.234171	0
105300	10.273010	0
105500	10.311922	0
105700	10.350908	0
105900	10.389968	0
106100	10.429101	1
106300	10.468307	0
106500	10.507587	0
106700	10.546941	0
106900	10.586368	0
107100	10.625869	0
107300	10.665443	0
107500	10.705091	0
107700	10.744812	0
107900	10.784607	0
108100	10.824476	0
108300	10.864418	0
108500	10.904434	0
108700	10.944523	0
108900	10.984686	0
109100	11.024922	0
109300	11.065232	0
109500	11.105615	0
109700	11.146072	0
109900	11.186603	0
110100	11.227207	0
110300	11.267884	0
110500	11.308636	0
110700	11.349460	0
110900	11.390359	0
111100	11.431331	0
111300	11.472376	0
111500	11.513495	1
111700	11.554688	0
111900	11.595954	0
112100	11.637293	0
112300	11.678707	0
112500	11.720193	1
112700	11.761754	3
112900	11.803388	0
113100	11.845095	1
113300	11.886876	0
113500	11.928731	0
113700	11.970659	60
113900	12.012661	108854
114100	12.054736	6
114300	12.096885	1
114500	12.139107	0
114700	12.181403	2
114900	12.223772	2
115100	12.266215	5
115300	12.308732	2
115500	12.351322	0
115700	12.393986	0
115900	12.436723	0
116100	12.479534	4
116300	12.522418	1
116500	12.565376	2
116700	12.608408	1
116900	12.651513	2
117100	12.694691	5
117300	12.737943	5
117500	12.781269	1
117700	12.824668	3
117900	12.868141	0
118100	12.911688	2
118300	12.955307	2
118500	12.999001	106896
118700	13.042768	56
118900	13.086609	5
119100	13.130523	8
119300	13.174511	4
119500	13.218572	5
119700	13.262707	5
119900	13.306915	8
120100	13.351197	3
120300	13.395552	2
120500	13.439982	3
120700	13.484484	2
120900	13.529060	27
121100	13.573710	6
121300	13.618433	2
121500	13.663230	2
121700	13.708101	0
121900	13.753045	1
122100	13.798062	1
122300	13.843153	1
122500	13.888318	1
122700	13.933556	0
122900	13.978868	1
123100	14.024253	14664
123300	14.069712	6
123500	14.115244	4
123700	14.160850	1
123900	14.206530	1
124100	14.252283	5
124300	14.298110	3
124500	14.344010	0
124700	14.389984	1
124900	14.436031	4
125100	14.482152	0
125300	14.528346	2
125500	14.574614	16
125700	14.620956	0
125900	14.667371	5
126100	14.713860	0
126300	14.760422	3
126500	14.807058	1
126700	14.853767	0
126900	14.900550	2
127100	14.947406	0
127300	14.994336	231
127500	15.041340	26597
127700	15.088417	38
127900	15.135568	12
128100	15.182792	19
128300	15.230090	3
128500	15.277461	4
128700	15.324906	4
128900	15.372424	3
129100	15.420016	1
129300	15.467682	4
129500	15.515421	2
129700	15.563234	5
129900	15.611120	3
130100	15.659080	29
130300	15.707113	2
130500	15.755220	1
130700	15.803401	1
130900	15.851655	2
131100	15.899982	2
131300	15.948383	29
131500	15.996858	398635
131700	16.045406	407
131900	16.094028	4
132100	16.142724	9
132300	16.191492	3
132500	16.240335	6
132700	16.289251	5
132900	16.338241	6
133100	16.387304	8
133300	16.436440	3
133500	16.485651	2
133700	16.534935	3
133900	16.584292	2
134100	16.633723	3
134300	16.683227	1
134500	16.732805	5
134700	16.782457	2
134900	16.832182	2
135100	16.881981	2
135300	16.931853	1
135500	16.981799	137109
135700	17.031819	7486
135900	17.081912	8
136100	17.132078	7
136300	17.182318	9
136500	17.232632	4
136700	17.283019	8
136900	17.333480	6
137100	17.384014	4
137300	17.434622	2
137500	17.485303	3
137700	17.536058	5
137900	17.586887	4
138100	17.637789	1
138300	17.688764	35
138500	17.739814	8
138700	17.790936	3
138900	17.842133	6
139100	17.893403	2
139300	17.944746	0
139500	17.996163	767
139700	18.047654	0
139900	18.099218	3
140100	18.150855	1
140300	18.202567	2
140500	18.254351	1
140700	18.306210	2
140900	18.358142	0
141100	18.410147	1
141300	18.462226	1
141500	18.514379	4
141700	18.566605	1
141900	18.618904	0
142100	18.671278	1
142300	18.723724	1
142500	18.776245	1
142700	18.828839	0
142900	18.881506	0
143100	18.934247	0
143300	18.987062	27383
143500	19.039950	189
143700	19.092911	5
143900	19.145947	2
144100	19.199056	5
144300	19.252238	3
144500	19.305494	0
144700	19.358823	0
144900	19.412226	2
145100	19.465703	3
145300	19.519253	2
145500	19.572877	0
145700	19.626574	1
145900	19.680345	1
146100	19.734189	3
146300	19.788107	0
146500	19.842099	0
146700	19.896164	0
146900	19.950302	1
147100	20.004514	1
147300	20.058800	0
147500	20.113159	0
147700	20.167592	0
147900	20.222099	1
148100	20.276679	0
148300	20.331332	0
148500	20.386059	1
148700	20.440860	1
148900	20.495734	1
149100	20.550682	0
149300	20.605703	0
149500	20.660798	0
149700	20.715966	2
149900	20.771208	0
150100	20.826524	0
150300	20.881913	1
150500	20.937375	0
150700	20.992911	0
150900	21.048521	1
151100	21.104204	0
151300	21.159961	1
151500	21.215792	0
151700	21.271696	0
151900	21.327673	0
152100	21.383724	0
152300	21.439849	0
152500	21.496047	0
152700	21.552319	0
152900	21.608664	0
153100	21.665083	0
153300	21.721576	0
153500	21.778142	0
153700	21.834781	0
153900	21.891494	0
154100	21.948281	4
154300	22.005141	1
154500	22.062075	1
154700	22.119082	2
154900	22.176163	0
155100	22.233317	0
155300	22.290545	0
155500	22.347847	0
155700	22.405222	0
155900	22.462671	1
156100	22.520193	0
156300	22.577789	0
156500	22.635458	0
156700	22.693201	0
156900	22.751017	1
157100	22.808907	0
157300	22.866871	0
157500	22.924908	2
157700	22.983019	158
157900	23.041203	5
158100	23.099461	1
158300	23.157792	2
158500	23.216197	1
158700	23.274676	1
158900	23.333228	0
159100	23.391853	0
159300	23.450552	0
159500	23.509325	0
159700	23.568171	1
159900	23.627091	0
160100	23.686084	1
160300	23.745151	0
160500	23.804292	2
160700	23.863506	1
160900	23.922793	90
161100	23.982155	594445
161300	24.041589	1364
161500	24.101098	25
161700	24.160679	25
161900	24.220335	16
162100	24.280064	24
162300	24.339866	18
162500	24.399742	19
162700	24.459692	23
162900	24.519715	13
163100	24.579812	21
163300	24.639982	19
163500	24.700226	29
163700	24.760543	14
163900	24.820934	24
164100	24.881399	18
164300	24.941937	32
164500	25.002548	716887
164700	25.063234	491
164900	25.123992	30
165100	25.184825	20
165300	25.245730	16
165500	25.306710	18
165700	25.367763	23
165900	25.428889	25
166100	25.490089	13
166300	25.551363	21
166500	25.612710	15
166700	25.674131	9
166900	25.735625	12
167100	25.797193	10
167300	25.858835	4
167500	25.920550	6
167700	25.982338	261944
167900	26.044200	8662
168100	26.106136	273
168300	26.168145	78
168500	26.230228	42
168700	26.292384	24
168900	26.354614	17
169100	26.416917	13
169300	26.479294	11
169500	26.541745	11
169700	26.604269	9
169900	26.666867	9
170100	26.729538	7
170300	26.792283	6
170500	26.855101	6
170700	26.917993	7
170900	26.980958	4754
171100	27.043997	2670
171300	27.107110	12
171500	27.170296	3
171700	27.233556	7
171900	27.296889	5
172100	27.360296	3
172300	27.423776	2
172500	27.487330	6
172700	27.550958	4
172900	27.614659	4
173100	27.678433	1
173300	27.742281	1
173500	27.806203	0
173700	27.870198	2
173900	27.934267	2
174100	27.998409	391
174300	28.062625	35
174500	28.126915	2
174700	28.191278	4
174900	28.255714	4
175100	28.320225	3
175300	28.384808	1
175500	28.449466	1
175700	28.514196	1
175900	28.579001	4
176100	28.643879	1
176300	28.708830	1
176500	28.773855	3
176700	28.838954	3
176900	28.904126	0
177100	28.969372	353
177300	29.034691	624
177500	29.100084	1
177700	29.165550	3
177900	29.231090	1
178100	29.296704	5
178300	29.362391	1
178500	29.428151	0
178700	29.493985	2
178900	29.559893	1
179100	29.625874	1
179300	29.691929	0
179500	29.758058	0
179700	29.824260	0
179900	29.890535	1
180100	29.956884	11
180300	30.023307	365
180500	30.089803	3
180700	30.156373	0
180900	30.223016	1
181100	30.289733	2
181300	30.356523	1
181500	30.423387	0
181700	30.490325	2
181900	30.557336	1
182100	30.624421	0
182300	30.691579	2
182500	30.758811	1
182700	30.826116	1
182900	30.893495	1
183100	30.960947	14
183300	31.028473	2191
183500	31.096073	0
183700	31.163746	0
183900	31.231492	0
184100	31.299313	2
184300	31.367206	0
184500	31.435174	2
184700	31.503215	1
184900	31.571329	1
185100	31.639517	0
185300	31.707779	0
185500	31.776114	0
185700	31.844522	1
185900	31.913005	3
186100	31.981560	8729
186300	32.050190	33
186500	32.118893	0
186700	32.187669	0
186900	32.256519	3
187100	32.325443	0
187300	32.394440	1
187500	32.463511	2
187700	32.532655	1
187900	32.601873	2
188100	32.671164	0
188300	32.740529	1
188500	32.809967	1
188700	32.879479	1
188900	32.949065	963
189100	33.018724	1415
189300	33.088457	0
189500	33.158263	2
189700	33.228143	4
189900	33.298096	3
190100	33.368123	0
190300	33.438224	0
190500	33.508398	2
190700	33.578645	1
190900	33.648966	0
191100	33.719361	1
191300	33.789829	1
191500	33.860371	1
191700	33.930987	44
191900	34.001676	159
192100	34.072438	0
192300	34.143274	0
192500	34.214184	1
192700	34.285167	0
192900	34.356224	0
193100	34.427354	0
193300	34.498558	0
193500	34.569835	0
193700	34.641186	2
193900	34.712611	1
194100	34.784109	2
194300	34.855680	1
194500	34.927325	5469
194700	34.999044	898286
194900	35.070836	313
195100	35.142702	112
195300	35.214642	61
195500	35.286655	31
195700	35.358741	18
195900	35.430901	18
196100	35.503135	20
196300	35.575442	12
196500	35.647823	13
196700	35.720277	6
196900	35.792805	10
197100	35.865407	3
197300	35.938081	19
197500	36.010830	44126
197700	36.083652	12
197900	36.156548	12
198100	36.229517	6
198300	36.302560	6
198500	36.375676	0
198700	36.448866	4
198900	36.522129	4
199100	36.595466	2
199300	36.668877	1
199500	36.742361	2
199700	36.815919	3
199900	36.889550	5
200100	36.963255	295417
200300	37.037033	13842
200500	37.110885	62
200700	37.184810	23
200900	37.258809	15
201100	37.332882	13
201300	37.407028	5
201500	37.481248	21
201700	37.555541	7
201900	37.629908	2
202100	37.704348	3
202300	37.778862	4
202500	37.853450	3
202700	37.928111	2
202900	38.002845	6988
203100	38.077653	19
203300	38.152535	5
203500	38.227490	7
203700	38.302519	4
203900	38.377621	1
204100	38.452797	2
204300	38.528047	6
204500	38.603370	4
204700	38.678766	4
204900	38.754237	3
205100	38.829780	1
205300	38.905398	2
205500	38.981088	1160
205700	39.056853	3439
205900	39.132691	3
206100	39.208602	2
206300	39.284587	2
206500	39.360646	5
206700	39.436778	3
206900	39.512984	1
207100	39.589263	17
207300	39.665616	3
207500	39.742042	0
207700	39.818542	0
