# Binning: 200 channels
# Deadtime Correction: on
Channel	m/z	Intensity
100	0.000405	2
300	0.000686	13
500	0.001041	0
700	0.001470	0
900	0.001972	0
1100	0.002548	1
1300	0.003198	3
1500	0.003921	5
1700	0.004718	2
1900	0.005589	0
2100	0.006534	1
2300	0.007552	1
2500	0.008644	0
2700	0.009809	0
2900	0.011049	0
3100	0.012362	1
3300	0.013749	0
3500	0.015209	0
3700	0.016743	0
3900	0.018351	1
4100	0.020033	0
4300	0.021788	0
4500	0.023617	0
4700	0.025520	0
4900	0.027496	0
5100	0.029546	0
5300	0.031670	0
5500	0.033868	0
5700	0.036139	0
5900	0.038484	0
6100	0.040902	0
6300	0.043395	1
6500	0.045961	0
6700	0.048600	0
6900	0.051314	0
7100	0.054101	0
7300	0.056962	0
7500	0.059897	0
7700	0.062905	0
7900	0.065987	0
8100	0.069143	0
8300	0.072372	0
8500	0.075675	0
8700	0.079052	0
8900	0.082502	0
9100	0.086027	0
9300	0.089625	0
9500	0.093296	0
9700	0.097042	0
9900	0.100861	2
10100	0.104753	0
10300	0.108720	2
10500	0.112760	0
10700	0.116874	0
10900	0.121062	0
11100	0.125323	0
11300	0.129658	1
11500	0.134067	0
11700	0.138549	0
11900	0.143105	0
12100	0.147735	0
12300	0.152438	0
12500	0.157216	1
12700	0.162067	0
12900	0.166991	0
13100	0.171990	0
13300	0.177062	0
13500	0.182207	1
13700	0.187427	0
13900	0.192720	0
14100	0.198087	0
14300	0.203527	0
14500	0.209042	0
14700	0.214630	0
14900	0.220291	0
15100	0.226027	0
15300	0.231836	0
15500	0.237719	0
15700	0.243675	0
15900	0.249705	0
16100	0.255809	0
16300	0.261987	0
16500	0.268238	0
16700	0.274563	0
16900	0.280962	0
17100	0.287435	0
17300	0.293981	0
17500	0.300601	0
17700	0.307294	0
17900	0.314062	0
18100	0.320903	0
18300	0.327817	0
18500	0.334806	0
18700	0.341868	0
18900	0.349004	0
19100	0.356213	0
19300	0.363496	0
19500	0.370853	0
19700	0.378284	0
19900	0.385788	0
20100	0.393366	0
20300	0.401018	0
20500	0.408743	0
20700	0.416543	0
20900	0.424415	0
21100	0.432362	0
21300	0.440382	0
21500	0.448476	1
21700	0.456644	0
21900	0.464885	0
22100	0.473201	0
22300	0.481589	0
22500	0.490052	0
22700	0.498588	0
22900	0.507198	0
23100	0.515882	0
23300	0.524639	0
23500	0.533470	0
23700	0.542375	0
23900	0.551353	0
24100	0.560405	0
24300	0.569531	0
24500	0.578731	0
24700	0.588004	0
24900	0.597351	0
25100	0.606772	0
25300	0.616266	0
25500	0.625834	0
25700	0.635476	0
25900	0.645192	0
26100	0.654981	0
26300	0.664844	0
26500	0.674780	0
26700	0.684791	1
26900	0.694875	0
27100	0.705032	0
27300	0.715264	0
27500	0.725569	0
27700	0.735948	0
27900	0.746401	0
28100	0.756927	0
28300	0.767527	0
28500	0.778200	0
28700	0.788948	0
28900	0.799769	0
29100	0.810664	0
29300	0.821632	0
29500	0.832674	0
29700	0.843790	0
29900	0.854980	0
30100	0.866243	0
30300	0.877580	0
30500	0.888991	0
30700	0.900476	0
30900	0.912034	0
31100	0.923666	32
31300	0.935371	2
31500	0.947150	2
31700	0.959003	1
31900	0.970930	6
32100	0.982930	12
32300	0.995005	34
32500	1.007152	116179
32700	1.019374	299
32900	1.031669	21
33100	1.044038	13
33300	1.056481	7
33500	1.068997	4
33700	1.081587	1
33900	1.094251	4
34100	1.106988	0
34300	1.119799	1
34500	1.132684	0
34700	1.145643	2
34900	1.158675	0
35100	1.171781	0
35300	1.184961	0
35500	1.198214	0
35700	1.211541	0
35900	1.224942	0
36100	1.238416	0
36300	1.251965	1
36500	1.265587	0
36700	1.279282	1
36900	1.293052	0
37100	1.306895	0
37300	1.320811	0
37500	1.334802	0
37700	1.348866	0
37900	1.363004	0
38100	1.377215	0
38300	1.391501	0
38500	1.405860	0
38700	1.420292	0
38900	1.434799	0
39100	1.449379	0
39300	1.464033	0
39500	1.478760	0
39700	1.493561	0
39900	1.508436	0
40100	1.523385	0
40300	1.538407	0
40500	1.553503	0
40700	1.568673	0
40900	1.583916	0
41100	1.599233	0
41300	1.614624	0
41500	1.630089	0
41700	1.645627	0
41900	1.661239	0
42100	1.676925	0
42300	1.692684	0
42500	1.708517	0
42700	1.724424	0
42900	1.740405	0
43100	1.756459	0
43300	1.772587	0
43500	1.788788	0
43700	1.805064	0
43900	1.821413	0
44100	1.837835	0
44300	1.854332	0
44500	1.870902	0
44700	1.887546	0
44900	1.904263	0
45100	1.921055	0
45300	1.937920	0
45500	1.954858	0
45700	1.971871	0
45900	1.988957	0
46100	2.006117	9
46300	2.023350	4
46500	2.040657	0
46700	2.058038	0
46900	2.075493	0
47100	2.093021	0
47300	2.110623	0
47500	2.128299	0
47700	2.146048	0
47900	2.163871	0
48100	2.181768	0
48300	2.199739	0
48500	2.217783	0
48700	2.235901	0
48900	2.254093	0
49100	2.272358	0
49300	2.290697	0
49500	2.309110	0
49700	2.327596	0
49900	2.346157	0
50100	2.364791	0
50300	2.383498	0
50500	2.402279	0
50700	2.421134	0
50900	2.440063	0
51100	2.459066	0
51300	2.478142	0
51500	2.497292	0
51700	2.516515	0
51900	2.535812	0
52100	2.555183	0
52300	2.574628	0
52500	2.594146	1
52700	2.613739	0
52900	2.633404	0
53100	2.653144	0
53300	2.672957	0
53500	2.692844	0
53700	2.712805	0
53900	2.732839	0
54100	2.752947	0
54300	2.773129	0
54500	2.793384	0
54700	2.813713	0
54900	2.834116	0
55100	2.854593	0
55300	2.875143	0
55500	2.895767	0
55700	2.916464	0
55900	2.937236	0
56100	2.958081	1
56300	2.979000	0
56500	2.999992	0
56700	3.021058	0
56900	3.042198	0
57100	3.063412	0
57300	3.084699	0
57500	3.106060	0
57700	3.127495	0
57900	3.149003	0
58100	3.170585	0
58300	3.192241	0
58500	3.213971	0
58700	3.235774	0
58900	3.257651	0
59100	3.279602	0
59300	3.301626	0
59500	3.323724	0
59700	3.345896	0
59900	3.368141	0
60100	3.390461	0
60300	3.412854	0
60500	3.435320	0
60700	3.457860	0
60900	3.480474	0
61100	3.503162	0
61300	3.525924	0
61500	3.548759	0
61700	3.571668	0
61900	3.594650	0
62100	3.617706	0
62300	3.640836	0
62500	3.664040	0
62700	3.687317	0
62900	3.710668	0
63100	3.734093	0
63300	3.757592	0
63500	3.781164	0
63700	3.804810	0
63900	3.828529	0
64100	3.852323	0
64300	3.876190	0
64500	3.900130	0
64700	3.924145	0
64900	3.948233	0
65100	3.972395	0
65300	3.996630	0
65500	4.020940	0
65700	4.045323	0
65900	4.069779	0
66100	4.094310	0
66300	4.118914	0
66500	4.143591	0
66700	4.168343	0
66900	4.193168	0
67100	4.218067	0
67300	4.243040	0
67500	4.268086	0
67700	4.293206	0
67900	4.318400	0
68100	4.343667	0
68300	4.369008	0
68500	4.394423	0
68700	4.419911	1
68900	4.445474	0
69100	4.471110	0
69300	4.496819	0
69500	4.522603	0
69700	4.548460	0
69900	4.574391	0
70100	4.600395	0
70300	4.626473	0
70500	4.652625	0
70700	4.678851	0
70900	4.705150	0
71100	4.731523	0
71300	4.757970	0
71500	4.784490	0
71700	4.811084	0
71900	4.837752	0
72100	4.864494	0
72300	4.891309	0
72500	4.918198	0
72700	4.945160	0
72900	4.972197	0
73100	4.999307	0
73300	5.026491	0
73500	5.053748	0
73700	5.081079	0
73900	5.108484	0
74100	5.135963	0
74300	5.163515	0
74500	5.191141	0
74700	5.218841	0
74900	5.246614	0
75100	5.274461	0
75300	5.302382	0
75500	5.330377	0
75700	5.358445	0
75900	5.386587	0
76100	5.414802	0
76300	5.443092	0
76500	5.471455	0
76700	5.499892	0
76900	5.528402	0
77100	5.556986	0
77300	5.585644	0
77500	5.614376	0
77700	5.643181	0
77900	5.672060	0
78100	5.701013	0
78300	5.730039	0
78500	5.759139	0
78700	5.788313	0
78900	5.817561	0
79100	5.846882	0
79300	5.876277	0
79500	5.905746	0
79700	5.935288	0
79900	5.964904	0
80100	5.994594	0
80300	6.024357	0
80500	6.054194	0
80700	6.084105	0
80900	6.114090	0
81100	6.144148	0
81300	6.174280	0
81500	6.204486	0
81700	6.234765	0
81900	6.265118	0
82100	6.295545	0
82300	6.326046	0
82500	6.356620	0
82700	6.387268	0
82900	6.417989	0
83100	6.448785	0
83300	6.479654	0
83500	6.510597	0
83700	6.541613	0
83900	6.572703	0
84100	6.603867	0
84300	6.635105	0
84500	6.666416	0
84700	6.697801	0
84900	6.729260	2
85100	6.760792	0
85300	6.792398	0
85500	6.824078	0
85700	6.855832	0
85900	6.887659	0
86100	6.919560	0
86300	6.951534	1
86500	6.983583	0
86700	7.015705	0
86900	7.047901	0
87100	7.080170	0
87300	7.112513	0
87500	7.144930	0
87700	7.177421	0
87900	7.209985	0
88100	7.242623	0
88300	7.275335	0
88500	7.308120	0
88700	7.340979	0
88900	7.373912	0
89100	7.406919	0
89300	7.439999	0
89500	7.473153	0
89700	7.506380	0
89900	7.539682	0
90100	7.573057	0
90300	7.606505	0
90500	7.640028	0
90700	7.673624	0
90900	7.707294	0
91100	7.741038	0
91300	7.774855	0
91500	7.808746	0
91700	7.842711	0
91900	7.876749	0
92100	7.910861	0
92300	7.945047	0
92500	7.979306	0
92700	8.013640	0
92900	8.048047	0
93100	8.082527	0
93300	8.117082	0
93500	8.151710	0
93700	8.186411	0
93900	8.221187	0
94100	8.256036	0
94300	8.290959	0
94500	8.325955	0
94700	8.361026	0
94900	8.396170	0
95100	8.431387	0
95300	8.466679	0
95500	8.502044	0
95700	8.537483	0
95900	8.572995	0
96100	8.608581	0
96300	8.644241	0
96500	8.679975	0
96700	8.715782	0
96900	8.751663	0
97100	8.787618	0
97300	8.823647	0
97500	8.859749	0
97700	8.895925	0
97900	8.932174	0
98100	8.968497	0
98300	9.004894	0
98500	9.041365	0
98700	9.077910	0
98900	9.114528	0
99100	9.151219	0
99300	9.187985	0
99500	9.224824	0
99700	9.261737	0
99900	9.298724	0
100100	9.335784	0
100300	9.372918	0
100500	9.410126	0
100700	9.447407	0
100900	9.484762	0
101100	9.522191	0
101300	9.559694	0
101500	9.597270	0
101700	9.634920	0
101900	9.672644	0
102100	9.710441	0
102300	9.748312	0
102500	9.786257	0
102700	9.824276	0
102900	9.862368	0
103100	9.900534	0
103300	9.938773	0
103500	9.977087	0
103700	10.015474	0
103900	10.053935	0
104100	10.092469	0
104300	10.131077	0
104500	10.169759	0
104700	10.208515	0
104900	10.247344	0
105100	10.286247	0
105300	10.325224	0
105500	10.364274	0
105700	10.403398	0
105900	10.442596	0
106100	10.481867	0
106300	10.521213	0
106500	10.560631	0
106700	10.600124	0
106900	10.639690	1
107100	10.679330	0
107300	10.719044	0
107500	10.758832	0
107700	10.798693	0
107900	10.838628	0
108100	10.878636	0
108300	10.918719	0
108500	10.958874	0
108700	10.999104	0
108900	11.039408	1
109100	11.079785	0
109300	11.120235	0
109500	11.160760	0
109700	11.201358	0
109900	11.242030	0
110100	11.282776	0
110300	11.323595	0
110500	11.364488	0
110700	11.405455	0
110900	11.446495	1
111100	11.487609	0
111300	11.528797	0
111500	11.570059	0
111700	11.611394	0
111900	11.652803	0
112100	11.694286	0
112300	11.735842	1
112500	11.777472	2
112700	11.819176	0
112900	11.860954	0
113100	11.902805	1
113300	11.944730	5
113500	11.986728	16508
113700	12.028801	237
113900	12.070947	5
114100	12.113166	1
114300	12.155460	0
114500	12.197827	0
114700	12.240268	1
114900	12.282782	0
115100	12.325371	1
115300	12.368033	3
115500	12.410768	1
115700	12.453578	0
115900	12.496461	1
116100	12.539418	0
116300	12.582448	0
116500	12.625552	0
116700	12.668730	1
116900	12.711982	8
117100	12.755307	2
117300	12.798706	0
117500	12.842179	0
117700	12.885725	1
117900	12.929345	4
118100	12.973039	19
118300	13.016807	15597
118500	13.060648	4
118700	13.104563	0
118900	13.148552	1
119100	13.192614	0
119300	13.236750	0
119500	13.280960	1
119700	13.325244	2
119900	13.369601	2
120100	13.414032	1
120300	13.458536	0
120500	13.503115	0
120700	13.547767	5
120900	13.592492	1
121100	13.637292	0
121300	13.682165	0
121500	13.727112	0
121700	13.772132	0
121900	13.817227	0
122100	13.862395	0
122300	13.907636	0
122500	13.952952	0
122700	13.998341	1438
122900	14.043804	44
123100	14.089340	0
123300	14.134950	0
123500	14.180634	0
123700	14.226392	0
123900	14.272223	1
124100	14.318128	0
124300	14.364107	0
124500	14.410159	0
124700	14.456285	0
124900	14.502485	0
125100	14.548759	0
125300	14.595106	4
125500	14.641527	0
125700	14.688022	0
125900	14.734590	0
126100	14.781232	0
126300	14.827948	0
126500	14.874737	0
126700	14.921601	0
126900	14.968538	2
127100	15.015548	1018
127300	15.062632	12
127500	15.109790	2
127700	15.157022	1
127900	15.204328	1
128100	15.251707	0
128300	15.299160	0
128500	15.346686	0
128700	15.394286	0
128900	15.441960	0
129100	15.489708	0
129300	15.537529	0
129500	15.585425	0
129700	15.633393	5
129900	15.681436	1
130100	15.729552	0
130300	15.777742	0
130500	15.826005	1
130700	15.874343	1
130900	15.922754	6
131100	15.971239	20699
131300	16.019797	8945
131500	16.068429	6
131700	16.117135	1
131900	16.165914	2
132100	16.214768	0
132300	16.263695	2
132500	16.312695	0
132700	16.361770	0
132900	16.410918	0
133100	16.460140	0
133300	16.509435	0
133500	16.558804	1
133700	16.608247	0
133900	16.657764	2
134100	16.707354	0
134300	16.757018	2
134500	16.806756	1
134700	16.856567	0
134900	16.906452	3
135100	16.956411	10
135300	17.006444	16076
135500	17.056550	15
135700	17.106730	2
135900	17.156984	0
136100	17.207311	0
136300	17.257712	1
136500	17.308187	1
136700	17.358735	0
136900	17.409358	0
137100	17.460053	1
137300	17.510823	0
137500	17.561666	0
137700	17.612583	0
137900	17.663574	1
138100	17.714639	4
138300	17.765777	0
138500	17.816988	0
138700	17.868274	0
138900	17.919633	0
139100	17.971066	11
139300	18.022573	33
139500	18.074153	0
139700	18.125807	0
139900	18.177535	0
140100	18.229337	1
140300	18.281212	0
140500	18.333161	1
140700	18.385183	0
140900	18.437280	0
141100	18.489450	0
141300	18.541693	0
141500	18.594011	3
141700	18.646402	1
141900	18.698867	0
142100	18.751405	0
142300	18.804017	1
142500	18.856703	0
142700	18.909463	0
142900	18.962296	9
143100	19.015204	2172
143300	19.068184	1
143500	19.121239	1
143700	19.174367	1
143900	19.227569	0
144100	19.280844	0
144300	19.334194	0
144500	19.387617	0
144700	19.441113	1
144900	19.494684	0
145100	19.548328	0
145300	19.602046	0
145500	19.655837	0
145700	19.709703	0
145900	19.763642	1
146100	19.817654	0
146300	19.871741	0
146500	19.925901	0
146700	19.980134	0
146900	20.034442	1
147100	20.088823	0
147300	20.143278	0
147500	20.197807	0
147700	20.252409	0
147900	20.307085	0
148100	20.361835	0
148300	20.416658	0
148500	20.471555	0
148700	20.526526	0
148900	20.581570	0
149100	20.636689	0
149300	20.691881	0
149500	20.747146	1
149700	20.802486	0
149900	20.857899	0
150100	20.913386	0
150300	20.968946	0
150500	21.024580	0
150700	21.080288	0
150900	21.136070	0
151100	21.191925	0
151300	21.247854	0
151500	21.303857	0
151700	21.359933	0
151900	21.416083	0
152100	21.472307	0
152300	21.528605	0
152500	21.584976	0
152700	21.641421	0
152900	21.697939	0
153100	21.754532	1
153300	21.811198	0
153500	21.867938	0
153700	21.924751	0
153900	21.981638	0
154100	22.038599	0
154300	22.095634	0
154500	22.152742	0
154700	22.209924	0
154900	22.267180	1
155100	22.324509	0
155300	22.381912	0
155500	22.439389	0
155700	22.496940	0
155900	22.554564	0
156100	22.612262	1
156300	22.670033	0
156500	22.727879	0
156700	22.785798	0
156900	22.843791	0
157100	22.901857	0
157300	22.959997	10
157500	23.018211	10
157700	23.076499	0
157900	23.134860	1
158100	23.193295	0
158300	23.251804	0
158500	23.310386	1
158700	23.369042	0
158900	23.427772	0
159100	23.486576	1
159300	23.545453	7
159500	23.604404	6
159700	23.663428	1
159900	23.722527	1
160100	23.781699	1
160300	23.840945	0
160500	23.900264	17
160700	23.959657	569
160900	24.019124	93800
161100	24.078665	30
161300	24.138279	6
161500	24.197967	4
161700	24.257729	3
161900	24.317564	2
162100	24.377473	4
162300	24.437456	8
162500	24.497512	3
162700	24.557643	13
162900	24.617847	5
163100	24.678124	7
163300	24.738476	1
163500	24.798901	4
163700	24.859399	4
163900	24.919972	35
164100	24.980618	119268
164300	25.041338	23725
164500	25.102132	42
164700	25.162999	16
164900	25.223940	10
165100	25.284954	8
165300	25.346043	9
165500	25.407205	2
165700	25.468441	5
165900	25.529750	10
166100	25.591134	11
166300	25.652591	6
166500	25.714121	2
166700	25.775725	3
166900	25.837404	1
167100	25.899155	11
167300	25.960981	283
167500	26.022880	60667
167700	26.084853	595
167900	26.146899	160
168100	26.209020	86
168300	26.271214	48
168500	26.333481	17
168700	26.395823	15
168900	26.458238	10
169100	26.520727	8
169300	26.583289	4
169500	26.645925	4
169700	26.708635	9
169900	26.771419	4
170100	26.834276	9
170300	26.897207	3
170500	26.960212	11
170700	27.023291	1706
170900	27.086443	18
171100	27.149669	0
171300	27.212968	0
171500	27.276341	10
171700	27.339788	3
171900	27.403309	2
172100	27.466904	1
172300	27.530572	0
172500	27.594313	1
172700	27.658129	1
172900	27.722018	2
173100	27.785981	0
173300	27.850018	0
173500	27.914128	1
173700	27.978312	17
173900	28.042570	20
174100	28.106901	0
174300	28.171307	0
174500	28.235785	1
174700	28.300338	0
174900	28.364964	0
175100	28.429664	1
175300	28.494438	1
175500	28.559285	1
175700	28.624206	1
175900	28.689201	2
176100	28.754270	0
176300	28.819412	1
176500	28.884628	0
176700	28.949917	16
176900	29.015281	212
177100	29.080718	2
177300	29.146229	1
177500	29.211813	0
177700	29.277471	1
177900	29.343203	0
178100	29.409009	0
178300	29.474888	0
178500	29.540841	0
178700	29.606868	3
178900	29.672968	0
179100	29.739142	0
179300	29.805390	0
179500	29.871711	1
179700	29.938107	1
179900	30.004576	14
180100	30.071118	0
180300	30.137735	0
180500	30.204425	0
180700	30.271188	1
180900	30.338026	1
181100	30.404937	0
181300	30.471922	2
181500	30.538980	1
181700	30.606113	0
181900	30.673319	0
182100	30.740598	0
182300	30.807952	0
182500	30.875379	0
182700	30.942880	0
182900	31.010454	526
183100	31.078102	0
183300	31.145824	0
183500	31.213620	0
183700	31.281489	0
183900	31.349432	1
184100	31.417449	1
184300	31.485539	0
184500	31.553704	0
184700	31.621941	3
184900	31.690253	0
185100	31.758638	0
185300	31.827097	4
185500	31.895630	0
185700	31.964236	692
185900	32.032916	17
186100	32.101670	0
186300	32.170498	0
186500	32.239399	1
186700	32.308374	0
186900	32.377422	0
187100	32.446545	0
187300	32.515741	0
187500	32.585011	0
187700	32.654354	0
187900	32.723771	0
188100	32.793262	1
188300	32.862827	0
188500	32.932465	3
188700	33.002177	235
188900	33.071962	1
189100	33.141822	0
189300	33.211755	1
189500	33.281762	3
189700	33.351842	2
189900	33.421996	1
190100	33.492224	0
190300	33.562526	0
190500	33.632901	0
190700	33.703350	0
190900	33.773873	0
191100	33.844470	0
191300	33.915140	0
191500	33.985884	16
191700	34.056701	0
191900	34.127592	1
192100	34.198557	1
192300	34.269596	1
192500	34.340708	0
192700	34.411894	1
192900	34.483154	21
193100	34.554488	0
193300	34.625895	2
193500	34.697376	0
193700	34.768931	2
193900	34.840559	16
194100	34.912261	192
194300	34.984037	145695
194500	35.055886	596
194700	35.127809	145
194900	35.199806	52
195100	35.271877	16
195300	35.344021	10
195500	35.416239	15
195700	35.488531	6
195900	35.560896	9
196100	35.633335	6
196300	35.705848	5
196500	35.778434	0
196700	35.851094	2
196900	35.923828	15
197100	35.996636	29828
197300	36.069517	60
197500	36.142472	8
197700	36.215501	3
197900	36.288604	3
198100	36.361780	1
198300	36.435029	8
198500	36.508353	2
198700	36.581750	2
198900	36.655221	1
199100	36.728766	0
199300	36.802384	8
199500	36.876076	16
199700	36.949842	45471
199900	37.023682	7115
200100	37.097595	84
200300	37.171582	27
200500	37.245642	12
200700	37.319777	7
200900	37.393985	7
201100	37.468266	7
201300	37.542622	2
201500	37.617051	2
201700	37.691554	2
201900	37.766130	2
202100	37.840781	4
202300	37.915505	1
202500	37.990302	2323
202700	38.065174	46
202900	38.140119	2
203100	38.215138	1
203300	38.290230	1
203500	38.365396	1
203700	38.440636	1
203900	38.515950	6
204100	38.591337	1
204300	38.666798	1
204500	38.742333	1
204700	38.817941	3
204900	38.893623	1
205100	38.969379	132
205300	39.045209	1188
205500	39.121112	3
205700	39.197089	0
205900	39.273140	2
206100	39.349264	0
206300	39.425462	0
206500	39.501734	0
206700	39.578079	4
206900	39.654499	3
207100	39.730992	1
207300	39.807558	1
207500	39.884198	3
207700	39.960912	3327
207900	40.037700	761
208100	40.114562	2
