# Binning: 200 channels
# Deadtime Correction: on
Channel	m/z	Intensity
100	0.000393	1
300	0.000668	11
500	0.001015	0
700	0.001434	0
900	0.001926	0
1100	0.002490	1
1300	0.003126	2
1500	0.003835	8
1700	0.004616	5
1900	0.005469	0
2100	0.006395	0
2300	0.007393	0
2500	0.008463	0
2700	0.009606	0
2900	0.010821	1
3100	0.012108	0
3300	0.013467	0
3500	0.014899	0
3700	0.016403	0
3900	0.017980	0
4100	0.019629	1
4300	0.021350	2
4500	0.023143	0
4700	0.025009	0
4900	0.026947	0
5100	0.028958	0
5300	0.031041	0
5500	0.033196	1
5700	0.035423	0
5900	0.037723	0
6100	0.040095	0
6300	0.042539	0
6500	0.045056	0
6700	0.047645	0
6900	0.050307	0
7100	0.053040	0
7300	0.055846	0
7500	0.058725	0
7700	0.061675	1
7900	0.064698	0
8100	0.067794	1
8300	0.070961	0
8500	0.074201	0
8700	0.077514	1
8900	0.080898	0
9100	0.084355	0
9300	0.087884	0
9500	0.091486	0
9700	0.095160	1
9900	0.098906	0
10100	0.102725	1
10300	0.106615	0
10500	0.110579	0
10700	0.114614	0
10900	0.118722	0
11100	0.122902	0
11300	0.127155	0
11500	0.131480	0
11700	0.135877	0
11900	0.140346	0
12100	0.144888	0
12300	0.149502	0
12500	0.154188	0
12700	0.158947	0
12900	0.163778	0
13100	0.168682	0
13300	0.173657	0
13500	0.178705	0
13700	0.183826	0
13900	0.189019	0
14100	0.194284	0
14300	0.199621	0
14500	0.205031	0
14700	0.210513	0
14900	0.216067	0
15100	0.221693	0
15300	0.227392	0
15500	0.233164	0
15700	0.239007	0
15900	0.244923	0
16100	0.250912	0
16300	0.256972	0
16500	0.263105	0
16700	0.269310	0
16900	0.275588	0
17100	0.281938	0
17300	0.288360	0
17500	0.294854	0
17700	0.301421	0
17900	0.308060	0
18100	0.314772	0
18300	0.321556	0
18500	0.328412	0
18700	0.335340	0
18900	0.342341	0
19100	0.349414	0
19300	0.356560	0
19500	0.363777	0
19700	0.371067	0
19900	0.378430	0
20100	0.385865	0
20300	0.393372	0
20500	0.400951	0
20700	0.408603	0
20900	0.416327	0
21100	0.424123	0
21300	0.431992	0
21500	0.439933	0
21700	0.447946	0
21900	0.456032	0
22100	0.464190	0
22300	0.472420	0
22500	0.480722	0
22700	0.489097	0
22900	0.497545	0
23100	0.506064	0
23300	0.514656	0
23500	0.523320	0
23700	0.532057	0
23900	0.540866	0
24100	0.549747	0
24300	0.558700	0
24500	0.567726	0
24700	0.576824	0
24900	0.585995	0
25100	0.595238	0
25300	0.604553	0
25500	0.613940	0
25700	0.623400	0
25900	0.632932	0
26100	0.642537	0
26300	0.652213	0
26500	0.661962	0
26700	0.671784	0
26900	0.681678	0
27100	0.691644	0
27300	0.701682	0
27500	0.711793	0
27700	0.721976	0
27900	0.732231	0
28100	0.742559	0
28300	0.752959	0
28500	0.763431	0
28700	0.773976	0
28900	0.784593	0
29100	0.795282	0
29300	0.806044	0
29500	0.816877	0
29700	0.827784	0
29900	0.838762	0
30100	0.849813	0
30300	0.860936	0
30500	0.872132	0
30700	0.883400	0
30900	0.894740	3
31100	0.906152	2
31300	0.917637	107
31500	0.929194	158
31700	0.940824	17
31900	0.952526	26
32100	0.964300	8
32300	0.976146	9
32500	0.988065	77
32700	1.000056	392
32900	1.012120	174499
33100	1.024255	328
33300	1.036464	71
33500	1.048744	26
33700	1.061097	10
33900	1.073522	15
34100	1.086019	19
34300	1.098589	7
34500	1.111231	1
34700	1.123945	3
34900	1.136732	0
35100	1.149591	5
35300	1.162522	1
35500	1.175526	1
35700	1.188602	0
35900	1.201750	0
36100	1.214970	0
36300	1.228263	0
36500	1.241629	2
36700	1.255066	0
36900	1.268576	2
37100	1.282158	0
37300	1.295813	1
37500	1.309540	0
37700	1.323339	5
37900	1.337210	5
38100	1.351154	0
38300	1.365170	0
38500	1.379259	0
38700	1.393420	1
38900	1.407653	0
39100	1.421958	0
39300	1.436336	0
39500	1.450786	0
39700	1.465309	0
39900	1.479903	0
40100	1.494570	1
40300	1.509310	0
40500	1.524122	0
40700	1.539006	0
40900	1.553962	1
41100	1.568991	1
41300	1.584092	0
41500	1.599265	0
41700	1.614511	0
41900	1.629829	1
42100	1.645219	2
42300	1.660682	3
42500	1.676217	1
42700	1.691824	0
42900	1.707503	0
43100	1.723255	0
43300	1.739080	0
43500	1.754976	0
43700	1.770945	0
43900	1.786986	0
44100	1.803100	1
44300	1.819286	0
44500	1.835544	0
44700	1.851874	0
44900	1.868277	0
45100	1.884752	3
45300	1.901300	0
45500	1.917920	0
45700	1.934612	2
45900	1.951376	1
46100	1.968213	2
46300	1.985122	0
46500	2.002104	0
46700	2.019157	26
46900	2.036283	0
47100	2.053482	0
47300	2.070752	0
47500	2.088095	1
47700	2.105511	1
47900	2.122999	0
48100	2.140559	0
48300	2.158191	0
48500	2.175896	0
48700	2.193673	0
48900	2.211522	1
49100	2.229443	0
49300	2.247437	0
49500	2.265504	0
49700	2.283642	1
49900	2.301853	1
50100	2.320136	0
50300	2.338492	0
50500	2.356920	0
50700	2.375420	0
50900	2.393993	0
51100	2.412637	0
51300	2.431355	0
51500	2.450144	0
51700	2.469006	0
51900	2.487940	0
52100	2.506947	0
52300	2.526025	1
52500	2.545177	0
52700	2.564400	0
52900	2.583696	0
53100	2.603064	0
53300	2.622504	0
53500	2.642017	0
53700	2.661602	0
53900	2.681260	0
54100	2.700989	0
54300	2.720791	0
54500	2.740666	0
54700	2.760612	0
54900	2.780631	1
55100	2.800723	0
55300	2.820886	0
55500	2.841122	2
55700	2.861431	0
55900	2.881811	0
56100	2.902264	1
56300	2.922789	0
56500	2.943387	0
56700	2.964057	1
56900	2.984799	0
57100	3.005614	0
57300	3.026501	0
57500	3.047460	0
57700	3.068491	0
57900	3.089595	0
58100	3.110771	0
58300	3.132020	0
58500	3.153341	0
58700	3.174734	0
58900	3.196199	0
59100	3.217737	0
59300	3.239347	0
59500	3.261030	0
59700	3.282785	0
59900	3.304612	0
60100	3.326511	0
60300	3.348483	0
60500	3.370527	0
60700	3.392643	0
60900	3.414832	0
61100	3.437093	0
61300	3.459426	0
61500	3.481832	0
61700	3.504310	0
61900	3.526860	0
62100	3.549483	0
62300	3.572178	0
62500	3.594945	0
62700	3.617785	0
62900	3.640697	0
63100	3.663681	0
63300	3.686738	0
63500	3.709867	0
63700	3.733068	0
63900	3.756341	0
64100	3.779687	0
64300	3.803106	0
64500	3.826596	0
64700	3.850159	0
64900	3.873794	1
65100	3.897502	1
65300	3.921281	0
65500	3.945134	0
65700	3.969058	0
65900	3.993055	0
66100	4.017124	1
66300	4.041265	0
66500	4.065479	0
66700	4.089765	0
66900	4.114124	0
67100	4.138554	0
67300	4.163058	0
67500	4.187633	0
67700	4.212281	0
67900	4.237001	0
68100	4.261793	0
68300	4.286658	0
68500	4.311595	0
68700	4.336604	0
68900	4.361686	1
69100	4.386840	0
69300	4.412066	0
69500	4.437365	0
69700	4.462736	0
69900	4.488179	0
70100	4.513694	0
70300	4.539282	0
70500	4.564943	0
70700	4.590675	0
70900	4.616480	0
71100	4.642357	0
71300	4.668307	0
71500	4.694329	0
71700	4.720423	0
71900	4.746589	0
72100	4.772828	0
72300	4.799139	0
72500	4.825523	0
72700	4.851979	0
72900	4.878507	0
73100	4.905107	0
73300	4.931780	0
73500	4.958525	0
73700	4.985342	0
73900	5.012232	0
74100	5.039194	0
74300	5.066229	0
74500	5.093335	0
74700	5.120514	0
74900	5.147766	1
75100	5.175089	0
75300	5.202485	0
75500	5.229954	0
75700	5.257494	0
75900	5.285107	0
76100	5.312793	0
76300	5.340550	0
76500	5.368380	0
76700	5.396282	0
76900	5.424257	0
77100	5.452304	0
77300	5.480423	0
77500	5.508615	0
77700	5.536879	0
77900	5.565215	0
78100	5.593623	0
78300	5.622104	0
78500	5.650657	0
78700	5.679283	0
78900	5.707981	0
79100	5.736751	0
79300	5.765593	0
79500	5.794508	0
79700	5.823495	0
79900	5.852555	0
80100	5.881686	0
80300	5.910891	0
80500	5.940167	0
80700	5.969516	0
80900	5.998937	0
81100	6.028430	0
81300	6.057996	1
81500	6.087634	0
81700	6.117344	0
81900	6.147127	0
82100	6.176982	0
82300	6.206909	0
82500	6.236909	0
82700	6.266981	0
82900	6.297125	0
83100	6.327342	0
83300	6.357631	0
83500	6.387992	0
83700	6.418426	0
83900	6.448931	1
84100	6.479510	0
84300	6.510160	0
84500	6.540883	0
84700	6.571678	0
84900	6.602546	0
85100	6.633486	0
85300	6.664498	0
85500	6.695582	0
85700	6.726739	0
85900	6.757968	0
86100	6.789270	0
86300	6.820644	0
86500	6.852090	0
86700	6.883608	0
86900	6.915199	0
87100	6.946862	0
87300	6.978597	0
87500	7.010405	0
87700	7.042285	0
87900	7.074238	0
88100	7.106262	0
88300	7.138359	0
88500	7.170529	0
88700	7.202770	0
88900	7.235084	0
89100	7.267471	0
89300	7.299929	0
89500	7.332460	0
89700	7.365064	0
89900	7.397739	0
90100	7.430487	0
90300	7.463307	0
90500	7.496200	0
90700	7.529165	1
90900	7.562202	0
91100	7.595312	1
91300	7.628494	0
91500	7.661748	0
91700	7.695074	0
91900	7.728473	0
92100	7.761944	0
92300	7.795488	0
92500	7.829104	0
92700	7.862792	0
92900	7.896552	0
93100	7.930385	0
93300	7.964290	0
93500	7.998268	0
93700	8.032317	0
93900	8.066439	0
94100	8.100634	0
94300	8.134901	0
94500	8.169240	0
94700	8.203651	0
94900	8.238135	1
95100	8.272691	0
95300	8.307319	0
95500	8.342020	0
95700	8.376793	0
95900	8.411638	0
96100	8.446556	0
96300	8.481546	0
96500	8.516608	0
96700	8.551743	0
96900	8.586950	0
97100	8.622229	0
97300	8.657580	0
97500	8.693004	0
97700	8.728501	0
97900	8.764069	0
98100	8.799710	0
98300	8.835423	0
98500	8.871209	0
98700	8.907067	0
98900	8.942997	0
99100	8.978999	0
99300	9.015074	0
99500	9.051221	0
99700	9.087441	0
99900	9.123732	0
100100	9.160097	0
100300	9.196533	0
100500	9.233042	0
100700	9.269623	0
100900	9.306276	0
101100	9.343002	0
101300	9.379800	0
101500	9.416670	0
101700	9.453613	0
101900	9.490628	0
102100	9.527715	0
102300	9.564875	0
102500	9.602107	0
102700	9.639411	0
102900	9.676788	0
103100	9.714237	1
103300	9.751758	0
103500	9.789352	0
103700	9.827018	1
103900	9.864756	0
104100	9.902567	0
104300	9.940450	0
104500	9.978405	0
104700	10.016432	0
104900	10.054532	0
105100	10.092704	0
105300	10.130949	0
105500	10.169266	0
105700	10.207655	0
105900	10.246116	0
106100	10.284650	0
106300	10.323256	0
106500	10.361935	0
106700	10.400686	0
106900	10.439509	0
107100	10.478404	0
107300	10.517372	0
107500	10.556412	0
107700	10.595524	0
107900	10.634709	0
108100	10.673966	0
108300	10.713296	4
108500	10.752697	0
108700	10.792171	0
108900	10.831718	0
109100	10.871336	0
109300	10.911027	0
109500	10.950791	0
109700	10.990626	0
109900	11.030534	0
110100	11.070515	0
110300	11.110567	0
110500	11.150692	0
110700	11.190889	0
110900	11.231159	0
111100	11.271501	0
111300	11.311915	0
111500	11.352402	0
111700	11.392961	0
111900	11.433592	0
112100	11.474295	0
112300	11.515071	1
112500	11.555919	0
112700	11.596840	0
112900	11.637833	0
113100	11.678898	1
113300	11.720035	2
113500	11.761245	0
113700	11.802527	0
113900	11.843881	0
114100	11.885308	1
114300	11.926807	3
114500	11.968379	16
114700	12.010022	11426
114900	12.051738	6
115100	12.093527	1
115300	12.135388	0
115500	12.177321	1
115700	12.219326	0
115900	12.261404	0
116100	12.303554	0
116300	12.345776	0
116500	12.388071	0
116700	12.430437	0
116900	12.472877	1
117100	12.515388	0
117300	12.557972	2
117500	12.600629	0
117700	12.643357	0
117900	12.686158	14
118100	12.729031	6
118300	12.771977	2
118500	12.814995	2
118700	12.858085	0
118900	12.901247	0
119100	12.944482	4
119300	12.987789	10308
119500	13.031169	5880
119700	13.074621	5
119900	13.118145	4
120100	13.161741	1
120300	13.205410	0
120500	13.249151	2
120700	13.292965	1
120900	13.336850	0
121100	13.380808	0
121300	13.424839	0
121500	13.468942	0
121700	13.513117	0
121900	13.557364	3
122100	13.601684	0
122300	13.646076	0
122500	13.690540	5
122700	13.735077	1
122900	13.779686	1
123100	13.824367	0
123300	13.869121	0
123500	13.913947	0
123700	13.958845	0
123900	14.003816	3373
124100	14.048858	54
124300	14.093974	3
124500	14.139161	2
124700	14.184421	0
124900	14.229753	1
125100	14.275158	1
125300	14.320635	1
125500	14.366184	1
125700	14.411806	0
125900	14.457499	0
126100	14.503266	0
126300	14.549104	0
126500	14.595015	3
126700	14.640998	2
126900	14.687053	1
127100	14.733181	0
127300	14.779381	1
127500	14.825654	0
127700	14.871998	0
127900	14.918416	2
128100	14.964905	2
128300	15.011467	4684
128500	15.058101	125
128700	15.104807	7
128900	15.151586	1
129100	15.198437	2
129300	15.245360	3
129500	15.292356	1
129700	15.339424	1
129900	15.386564	1
130100	15.433777	1
130300	15.481062	0
130500	15.528419	2
130700	15.575849	0
130900	15.623351	0
131100	15.670925	13
131300	15.718571	1
131500	15.766290	3
131700	15.814081	2
131900	15.861945	2
132100	15.909881	7
132300	15.957889	58
132500	16.005970	43777
132700	16.054122	24
132900	16.102348	1
133100	16.150645	3
133300	16.199015	3
133500	16.247457	2
133700	16.295971	0
133900	16.344558	2
134100	16.393217	0
134300	16.441949	1
134500	16.490753	0
134700	16.539629	2
134900	16.588577	1
135100	16.637598	23
135300	16.686691	3
135500	16.735856	2
135700	16.785094	2
135900	16.834404	0
136100	16.883786	1
136300	16.933241	8
136500	16.982768	25362
136700	17.032367	3442
136900	17.082039	19
137100	17.131783	6
137300	17.181599	1
137500	17.231488	2
137700	17.281449	4
137900	17.331482	1
138100	17.381587	0
138300	17.431765	0
138500	17.482015	2
138700	17.532338	3
138900	17.582733	0
139100	17.633200	0
139300	17.683740	4
139500	17.734351	7
139700	17.785036	2
139900	17.835792	0
140100	17.886621	0
140300	17.937522	0
140500	17.988495	85
140700	18.039541	6
140900	18.090659	0
141100	18.141850	0
141300	18.193112	1
141500	18.244448	1
141700	18.295855	0
141900	18.347335	0
142100	18.398887	0
142300	18.450511	0
142500	18.502208	0
142700	18.553977	0
142900	18.605818	1
143100	18.657732	0
143300	18.709718	0
143500	18.761776	0
143700	18.813907	0
143900	18.866110	1
144100	18.918385	0
144300	18.970733	627
144500	19.023152	1415
144700	19.075645	1
144900	19.128209	0
145100	19.180846	0
145300	19.233555	0
145500	19.286337	0
145700	19.339191	0
145900	19.392117	0
146100	19.445115	0
146300	19.498186	0
146500	19.551329	0
146700	19.604545	0
146900	19.657833	0
147100	19.711193	0
147300	19.764625	0
147500	19.818130	0
147700	19.871707	0
147900	19.925357	0
148100	19.979078	1
148300	20.032872	0
148500	20.086739	0
148700	20.140678	0
148900	20.194689	0
149100	20.248772	1
149300	20.302928	0
149500	20.357156	0
149700	20.411456	0
149900	20.465829	0
150100	20.520274	0
150300	20.574791	0
150500	20.629381	0
150700	20.684043	0
150900	20.738777	1
151100	20.793583	0
151300	20.848462	0
151500	20.903414	0
151700	20.958437	0
151900	21.013533	0
152100	21.068701	0
152300	21.123942	0
152500	21.179255	1
152700	21.234640	1
152900	21.290097	0
153100	21.345627	0
153300	21.401229	0
153500	21.456904	0
153700	21.512651	0
153900	21.568470	0
154100	21.624361	0
154300	21.680325	0
154500	21.736361	0
154700	21.792469	0
154900	21.848650	0
155100	21.904903	1
155300	21.961229	0
155500	22.017626	0
155700	22.074096	0
155900	22.130639	0
156100	22.187253	0
156300	22.243940	1
156500	22.300700	0
156700	22.357531	0
156900	22.414435	0
157100	22.471412	0
157300	22.528460	0
157500	22.585581	0
157700	22.642775	1
157900	22.700040	0
158100	22.757378	0
158300	22.814788	0
158500	22.872271	0
158700	22.929826	0
158900	22.987453	21
159100	23.045153	2
159300	23.102924	0
159500	23.160769	0
159700	23.218685	0
159900	23.276674	0
160100	23.334735	0
160300	23.392869	0
160500	23.451074	0
160700	23.509353	0
160900	23.567703	8
161100	23.626126	4
161300	23.684621	3
161500	23.743188	2
161700	23.801828	0
161900	23.860540	1
162100	23.919324	12
162300	23.978181	43104
162500	24.037110	2644
162700	24.096112	15
162900	24.155185	9
163100	24.214331	3
163300	24.273550	4
163500	24.332840	2
163700	24.392203	0
163900	24.451639	4
164100	24.511146	1
164300	24.570726	27
164500	24.630378	2
164700	24.690103	4
164900	24.749900	6
165100	24.809769	2
165300	24.869711	3
165500	24.929725	15
165700	24.989811	74529
165900	25.049969	3253
166100	25.110200	97
166300	25.170503	38
166500	25.230879	22
166700	25.291327	11
166900	25.351847	11
167100	25.412439	4
167300	25.473104	5
167500	25.533841	4
167700	25.594651	3
167900	25.655532	6
168100	25.716487	0
168300	25.777513	2
168500	25.838612	0
168700	25.899783	13
168900	25.961026	161
169100	26.022342	57172
169300	26.083730	1345
169500	26.145190	458
169700	26.206723	201
169900	26.268328	100
170100	26.330005	83
170300	26.391755	64
170500	26.453577	32
170700	26.515471	37
170900	26.577438	23
171100	26.639477	21
171300	26.701588	17
171500	26.763772	19
171700	26.826028	8
171900	26.888356	11
172100	26.950756	13
172300	27.013229	3368
172500	27.075774	114
172700	27.138392	16
172900	27.201082	5
173100	27.263844	6
173300	27.326679	6
173500	27.389585	0
173700	27.452564	2
173900	27.515616	4
174100	27.578740	2
174300	27.641936	2
174500	27.705204	4
174700	27.768545	3
174900	27.831958	3
175100	27.895444	2
175300	27.959001	42
175500	28.022631	71
175700	28.086334	5
175900	28.150108	0
176100	28.213956	1
176300	28.277875	2
176500	28.341867	1
176700	28.405931	0
176900	28.470067	1
177100	28.534276	1
177300	28.598557	0
177500	28.662910	0
177700	28.727335	3
177900	28.791833	1
178100	28.856404	1
178300	28.921046	6
178500	28.985761	470
178700	29.050548	50
178900	29.115408	1
179100	29.180340	2
179300	29.245344	2
179500	29.310421	0
179700	29.375569	0
179900	29.440791	1
180100	29.506084	3
180300	29.571450	1
180500	29.636888	1
180700	29.702399	2
180900	29.767981	0
181100	29.833636	0
181300	29.899364	0
181500	29.965164	26
181700	30.031036	26
181900	30.096980	0
182100	30.162997	0
182300	30.229086	0
182500	30.295247	0
182700	30.361481	0
182900	30.427787	2
183100	30.494165	0
183300	30.560616	0
183500	30.627139	0
183700	30.693734	0
183900	30.760402	1
184100	30.827142	0
184300	30.893954	0
184500	30.960839	4
184700	31.027796	526
184900	31.094825	2
185100	31.161927	0
185300	31.229101	0
185500	31.296347	0
185700	31.363665	0
185900	31.431056	1
186100	31.498520	0
186300	31.566055	0
186500	31.633663	0
186700	31.701343	1
186900	31.769096	0
187100	31.836920	0
187300	31.904818	2
187500	31.972787	1343
187700	32.040829	21
187900	32.108943	0
188100	32.177129	0
188300	32.245388	0
188500	32.313719	1
188700	32.382123	0
188900	32.450598	0
189100	32.519146	0
189300	32.587767	0
189500	32.656460	0
189700	32.725225	1
189900	32.794062	0
190100	32.862972	0
190300	32.931954	0
190500	33.001008	309
190700	33.070135	0
190900	33.139334	2
191100	33.208605	1
191300	33.277948	0
191500	33.347364	2
191700	33.416853	2
191900	33.486413	0
192100	33.556046	0
192300	33.625751	0
192500	33.695529	0
192700	33.765379	0
192900	33.835301	0
193100	33.905296	0
193300	33.975362	28
193500	34.045502	5
193700	34.115713	0
193900	34.185997	0
194100	34.256353	0
194300	34.326782	0
194500	34.397282	1
194700	34.467855	13
194900	34.538501	1
195100	34.609219	0
195300	34.680009	1
195500	34.750871	0
195700	34.821806	9
195900	34.892813	25
196100	34.963892	101176
196300	35.035044	2170
196500	35.106268	399
196700	35.177564	136
196900	35.248933	50
197100	35.320374	27
197300	35.391887	15
197500	35.463473	13
197700	35.535131	7
197900	35.606861	7
198100	35.678664	6
198300	35.750539	6
198500	35.822486	0
198700	35.894506	3
198900	35.966598	11107
199100	36.038762	4325
199300	36.110998	7
199500	36.183307	3
199700	36.255688	1
199900	36.328142	0
200100	36.400668	3
200300	36.473266	5
200500	36.545936	0
200700	36.618679	3
200900	36.691494	3
201100	36.764382	0
201300	36.837342	7
201500	36.910374	69
201700	36.983478	36840
201900	37.056655	730
202100	37.129904	90
202300	37.203225	22
202500	37.276619	15
202700	37.350085	3
202900	37.423624	2
203100	37.497234	4
203300	37.570917	4
203500	37.644673	4
203700	37.718500	3
203900	37.792400	1
204100	37.866373	1
204300	37.940417	10
204500	38.014534	2907
204700	38.088724	18
204900	38.162985	0
205100	38.237319	4
205300	38.311725	4
205500	38.386204	1
205700	38.460755	0
205900	38.535378	2
206100	38.610074	0
206300	38.684842	2
206500	38.759682	0
206700	38.834594	0
206900	38.909579	2
207100	38.984636	443
207300	39.059766	1173
207500	39.134968	8
207700	39.210242	3
207900	39.285588	3
