# Binning: 200 channels
# Deadtime Correction: on
Channel	m/z	Intensity
100	0.000405	1
300	0.000686	14
500	0.001040	0
700	0.001469	0
900	0.001970	0
1100	0.002546	0
1300	0.003195	2
1500	0.003918	6
1700	0.004714	1
1900	0.005584	0
2100	0.006528	0
2300	0.007545	0
2500	0.008636	0
2700	0.009801	0
2900	0.011039	0
3100	0.012351	0
3300	0.013736	0
3500	0.015195	0
3700	0.016728	0
3900	0.018334	0
4100	0.020014	0
4300	0.021768	2
4500	0.023595	1
4700	0.025496	0
4900	0.027471	0
5100	0.029519	0
5300	0.031641	0
5500	0.033836	0
5700	0.036105	0
5900	0.038448	0
6100	0.040864	0
6300	0.043354	0
6500	0.045917	0
6700	0.048555	0
6900	0.051266	0
7100	0.054050	0
7300	0.056908	0
7500	0.059840	0
7700	0.062845	0
7900	0.065924	0
8100	0.069077	0
8300	0.072303	0
8500	0.075603	0
8700	0.078976	0
8900	0.082424	0
9100	0.085944	0
9300	0.089539	0
9500	0.093207	0
9700	0.096949	0
9900	0.100764	0
10100	0.104653	0
10300	0.108615	0
10500	0.112652	0
10700	0.116762	0
10900	0.120945	0
11100	0.125202	0
11300	0.129533	0
11500	0.133937	0
11700	0.138415	0
11900	0.142967	0
12100	0.147592	0
12300	0.152291	0
12500	0.157064	0
12700	0.161910	0
12900	0.166830	0
13100	0.171823	0
13300	0.176890	0
13500	0.182031	0
13700	0.187245	0
13900	0.192533	0
14100	0.197895	0
14300	0.203330	0
14500	0.208839	0
14700	0.214421	0
14900	0.220078	0
15100	0.225807	0
15300	0.231611	0
15500	0.237488	0
15700	0.243438	0
15900	0.249463	1
16100	0.255561	0
16300	0.261732	0
16500	0.267977	0
16700	0.274296	0
16900	0.280689	0
17100	0.287155	0
17300	0.293694	0
17500	0.300308	0
17700	0.306995	0
17900	0.313755	0
18100	0.320590	0
18300	0.327498	0
18500	0.334479	0
18700	0.341534	0
18900	0.348663	0
19100	0.355865	0
19300	0.363141	0
19500	0.370491	0
19700	0.377914	0
19900	0.385411	0
20100	0.392982	0
20300	0.400626	0
20500	0.408344	0
20700	0.416135	0
20900	0.424001	0
21100	0.431939	0
21300	0.439952	0
21500	0.448038	0
21700	0.456197	0
21900	0.464431	0
22100	0.472737	0
22300	0.481118	0
22500	0.489572	0
22700	0.498100	0
22900	0.506701	0
23100	0.515376	0
23300	0.524125	0
23500	0.532947	0
23700	0.541843	0
23900	0.550813	0
24100	0.559856	0
24300	0.568973	0
24500	0.578164	0
24700	0.587428	0
24900	0.596765	0
25100	0.606177	0
25300	0.615662	0
25500	0.625220	0
25700	0.634853	0
25900	0.644559	0
26100	0.654338	0
26300	0.664191	0
26500	0.674118	0
26700	0.684119	0
26900	0.694193	0
27100	0.704340	0
27300	0.714562	0
27500	0.724857	0
27700	0.735225	0
27900	0.745668	0
28100	0.756183	0
28300	0.766773	0
28500	0.777436	0
28700	0.788173	0
28900	0.798983	0
29100	0.809867	0
29300	0.820825	0
29500	0.831856	0
29700	0.842961	0
29900	0.854140	0
30100	0.865392	0
30300	0.876718	0
30500	0.888117	0
30700	0.899590	0
30900	0.911137	0
31100	0.922757	29
31300	0.934451	3
31500	0.946219	1
31700	0.958060	4
31900	0.969975	2
32100	0.981964	19
32300	0.994026	35
32500	1.006162	142257
32700	1.018371	514
32900	1.030654	21
33100	1.043011	9
33300	1.055441	8
33500	1.067945	4
33700	1.080523	5
33900	1.093174	0
34100	1.105899	2
34300	1.118697	1
34500	1.131569	1
34700	1.144515	1
34900	1.157534	0
35100	1.170627	0
35300	1.183794	0
35500	1.197034	1
35700	1.210348	0
35900	1.223736	0
36100	1.237197	1
36300	1.250732	1
36500	1.264340	0
36700	1.278022	0
36900	1.291778	0
37100	1.305607	0
37300	1.319510	1
37500	1.333487	2
37700	1.347537	0
37900	1.361661	0
38100	1.375858	0
38300	1.390129	1
38500	1.404474	2
38700	1.418892	0
38900	1.433384	0
39100	1.447950	0
39300	1.462589	0
39500	1.477302	0
39700	1.492089	0
39900	1.506949	0
40100	1.521883	0
40300	1.536890	0
40500	1.551971	1
40700	1.567126	0
40900	1.582354	0
41100	1.597656	0
41300	1.613032	0
41500	1.628481	0
41700	1.644004	1
41900	1.659601	0
42100	1.675271	0
42300	1.691014	0
42500	1.706832	0
42700	1.722723	0
42900	1.738688	0
43100	1.754726	0
43300	1.770838	0
43500	1.787023	0
43700	1.803283	0
43900	1.819615	0
44100	1.836022	0
44300	1.852502	0
44500	1.869056	0
44700	1.885683	0
44900	1.902384	2
45100	1.919159	0
45300	1.936007	0
45500	1.952929	0
45700	1.969924	0
45900	1.986993	0
46100	2.004136	0
46300	2.021353	18
46500	2.038643	0
46700	2.056006	0
46900	2.073444	0
47100	2.090955	0
47300	2.108539	0
47500	2.126197	0
47700	2.143929	0
47900	2.161735	0
48100	2.179614	0
48300	2.197567	0
48500	2.215593	0
48700	2.233693	0
48900	2.251867	0
49100	2.270114	0
49300	2.288435	0
49500	2.306829	0
49700	2.325297	1
49900	2.343839	0
50100	2.362455	0
50300	2.381144	0
50500	2.399906	0
50700	2.418743	0
50900	2.437653	0
51100	2.456636	0
51300	2.475694	0
51500	2.494824	0
51700	2.514029	0
51900	2.533307	0
52100	2.552659	0
52300	2.572084	0
52500	2.591583	0
52700	2.611156	0
52900	2.630802	0
53100	2.650522	0
53300	2.670316	0
53500	2.690183	0
53700	2.710124	0
53900	2.730138	0
54100	2.750226	0
54300	2.770388	0
54500	2.790623	0
54700	2.810932	0
54900	2.831315	0
55100	2.851771	0
55300	2.872301	0
55500	2.892904	0
55700	2.913581	0
55900	2.934332	0
56100	2.955157	0
56300	2.976055	0
56500	2.997026	0
56700	3.018072	0
56900	3.039191	0
57100	3.060383	0
57300	3.081649	0
57500	3.102989	0
57700	3.124403	0
57900	3.145890	0
58100	3.167450	0
58300	3.189085	0
58500	3.210793	0
58700	3.232574	0
58900	3.254430	0
59100	3.276358	0
59300	3.298361	0
59500	3.320437	0
59700	3.342587	0
59900	3.364810	0
60100	3.387107	0
60300	3.409478	0
60500	3.431922	0
60700	3.454440	0
60900	3.477032	0
61100	3.499697	0
61300	3.522436	0
61500	3.545248	0
61700	3.568135	0
61900	3.591094	0
62100	3.614128	0
62300	3.637235	0
62500	3.660415	0
62700	3.683670	0
62900	3.706997	0
63100	3.730399	0
63300	3.753874	0
63500	3.777423	0
63700	3.801045	0
63900	3.824741	0
64100	3.848511	0
64300	3.872354	0
64500	3.896271	0
64700	3.920262	0
64900	3.944326	0
65100	3.968464	0
65300	3.992676	0
65500	4.016961	0
65700	4.041319	0
65900	4.065752	0
66100	4.090258	0
66300	4.114838	0
66500	4.139491	0
66700	4.164218	0
66900	4.189018	0
67100	4.213892	0
67300	4.238840	0
67500	4.263862	0
67700	4.288957	0
67900	4.314126	0
68100	4.339368	0
68300	4.364684	0
68500	4.390073	0
68700	4.415537	0
68900	4.441074	0
69100	4.466684	0
69300	4.492368	0
69500	4.518126	0
69700	4.543957	0
69900	4.569862	0
70100	4.595841	0
70300	4.621893	0
70500	4.648019	0
70700	4.674219	0
70900	4.700492	0
71100	4.726839	0
71300	4.753259	0
71500	4.779753	0
71700	4.806321	0
71900	4.832963	0
72100	4.859678	0
72300	4.886466	0
72500	4.913328	0
72700	4.940264	0
72900	4.967274	0
73100	4.994357	0
73300	5.021514	0
73500	5.048744	0
73700	5.076048	0
73900	5.103426	0
74100	5.130877	0
74300	5.158402	0
74500	5.186001	0
74700	5.213673	0
74900	5.241419	0
75100	5.269238	0
75300	5.297131	0
75500	5.325098	0
75700	5.353138	0
75900	5.381252	0
76100	5.409440	0
76300	5.437701	0
76500	5.466036	0
76700	5.494445	0
76900	5.522927	0
77100	5.551483	0
77300	5.580112	0
77500	5.608815	0
77700	5.637592	0
77900	5.666442	0
78100	5.695366	0
78300	5.724364	0
78500	5.753435	0
78700	5.782580	0
78900	5.811798	0
79100	5.841091	0
79300	5.870456	0
79500	5.899896	0
79700	5.929409	0
79900	5.958995	0
80100	5.988656	0
80300	6.018390	0
80500	6.048197	0
80700	6.078078	0
80900	6.108033	0
81100	6.138062	0
81300	6.168164	0
81500	6.198339	0
81700	6.228589	0
81900	6.258912	0
82100	6.289308	0
82300	6.319779	0
82500	6.350322	0
82700	6.380940	0
82900	6.411631	0
83100	6.442396	0
83300	6.473234	0
83500	6.504146	0
83700	6.535132	0
83900	6.566191	0
84100	6.597324	0
84300	6.628531	0
84500	6.659811	0
84700	6.691165	0
84900	6.722592	0
85100	6.754093	0
85300	6.785668	0
85500	6.817316	0
85700	6.849038	0
85900	6.880834	0
86100	6.912703	0
86300	6.944646	0
86500	6.976663	0
86700	7.008753	0
86900	7.040917	0
87100	7.073154	0
87300	7.105465	0
87500	7.137850	0
87700	7.170308	0
87900	7.202840	0
88100	7.235446	0
88300	7.268125	0
88500	7.300878	0
88700	7.333704	0
88900	7.366604	0
89100	7.399578	0
89300	7.432625	0
89500	7.465746	0
89700	7.498941	0
89900	7.532209	0
90100	7.565551	0
90300	7.598967	0
90500	7.632456	0
90700	7.666019	0
90900	7.699655	0
91100	7.733365	0
91300	7.767149	0
91500	7.801006	0
91700	7.834937	0
91900	7.868942	0
92100	7.903020	0
92300	7.937172	0
92500	7.971397	0
92700	8.005696	0
92900	8.040069	0
93100	8.074516	0
93300	8.109036	0
93500	8.143629	0
93700	8.178297	0
93900	8.213038	0
94100	8.247852	0
94300	8.282740	0
94500	8.317702	0
94700	8.352738	0
94900	8.387847	0
95100	8.423029	0
95300	8.458286	0
95500	8.493616	1
95700	8.529019	0
95900	8.564496	0
96100	8.600047	0
96300	8.635672	0
96500	8.671370	0
96700	8.707142	0
96900	8.742987	0
97100	8.778906	0
97300	8.814899	0
97500	8.850965	0
97700	8.887105	0
97900	8.923319	0
98100	8.959606	0
98300	8.995967	0
98500	9.032401	0
98700	9.068909	0
98900	9.105491	0
99100	9.142146	0
99300	9.178875	0
99500	9.215678	0
99700	9.252554	0
99900	9.289504	0
100100	9.326528	0
100300	9.363625	0
100500	9.400796	0
100700	9.438040	0
100900	9.475358	0
101100	9.512750	0
101300	9.550215	0
101500	9.587754	0
101700	9.625367	0
101900	9.663053	0
102100	9.700813	0
102300	9.738646	0
102500	9.776553	0
102700	9.814534	0
102900	9.852588	0
103100	9.890716	0
103300	9.928918	0
103500	9.967193	0
103700	10.005542	1
103900	10.043965	0
104100	10.082461	0
104300	10.121031	0
104500	10.159674	0
104700	10.198391	0
104900	10.237182	0
105100	10.276046	0
105300	10.314984	0
105500	10.353996	0
105700	10.393081	0
105900	10.432240	0
106100	10.471472	0
106300	10.510778	0
106500	10.550158	0
106700	10.589612	0
106900	10.629139	0
107100	10.668739	0
107300	10.708414	0
107500	10.748162	0
107700	10.787983	0
107900	10.827878	0
108100	10.867847	0
108300	10.907890	1
108500	10.948006	0
108700	10.988195	0
108900	11.028459	1
109100	11.068796	0
109300	11.109206	1
109500	11.149691	0
109700	11.190248	0
109900	11.230880	0
110100	11.271585	0
110300	11.312364	0
110500	11.353216	0
110700	11.394142	0
110900	11.435142	0
111100	11.476215	0
111300	11.517362	0
111500	11.558583	0
111700	11.599877	0
111900	11.641245	0
112100	11.682686	2
112300	11.724201	1
112500	11.765790	0
112700	11.807452	0
112900	11.849188	1
113100	11.890998	0
113300	11.932881	9
113500	11.974838	229
113700	12.016869	20328
113900	12.058973	4
114100	12.101151	2
114300	12.143402	0
114500	12.185727	0
114700	12.228126	1
114900	12.270598	0
115100	12.313144	0
115300	12.355764	0
115500	12.398457	1
115700	12.441224	0
115900	12.484064	0
116100	12.526978	1
116300	12.569966	0
116500	12.613027	0
116700	12.656162	1
116900	12.699371	6
117100	12.742653	1
117300	12.786009	1
117500	12.829439	0
117700	12.872942	1
117900	12.916519	2
118100	12.960169	5
118300	13.003893	20275
118500	13.047691	35
118700	13.091562	2
118900	13.135507	0
119100	13.179526	0
119300	13.223618	1
119500	13.267784	2
119700	13.312023	2
119900	13.356337	1
120100	13.400723	2
120300	13.445184	1
120500	13.489718	1
120700	13.534325	5
120900	13.579007	0
121100	13.623762	1
121300	13.668590	0
121500	13.713492	0
121700	13.758468	1
121900	13.803518	1
122100	13.848641	0
122300	13.893837	0
122500	13.939108	2
122700	13.984452	4
122900	14.029869	1806
123100	14.075361	3
123300	14.120925	0
123500	14.166564	1
123700	14.212276	2
123900	14.258062	1
124100	14.303921	1
124300	14.349854	0
124500	14.395861	0
124700	14.441941	0
124900	14.488095	1
125100	14.534323	1
125300	14.580624	3
125500	14.626999	0
125700	14.673447	0
125900	14.719969	0
126100	14.766565	0
126300	14.813235	0
126500	14.859978	0
126700	14.906794	0
126900	14.953684	1
127100	15.000648	708
127300	15.047686	1040
127500	15.094797	7
127700	15.141982	1
127900	15.189240	0
128100	15.236572	3
128300	15.283978	1
128500	15.331457	2
128700	15.379010	0
128900	15.426637	0
129100	15.474337	0
129300	15.522111	0
129500	15.569958	0
129700	15.617879	1
129900	15.665874	13
130100	15.713943	2
130300	15.762085	1
130500	15.810300	0
130700	15.858589	1
130900	15.906952	5
131100	15.955389	27
131300	16.003899	29405
131500	16.052483	28
131700	16.101140	4
131900	16.149871	1
132100	16.198676	0
132300	16.247554	2
132500	16.296506	2
132700	16.345532	0
132900	16.394631	0
133100	16.443804	3
133300	16.493051	0
133500	16.542371	0
133700	16.591764	1
133900	16.641232	1
134100	16.690773	0
134300	16.740388	1
134500	16.790076	0
134700	16.839838	0
134900	16.889673	0
135100	16.939583	4
135300	16.989565	15831
135500	17.039622	154
135700	17.089752	2
135900	17.139956	0
136100	17.190233	2
136300	17.240584	4
136500	17.291009	0
136700	17.341507	0
136900	17.392079	0
137100	17.442724	0
137300	17.493443	0
137500	17.544236	1
137700	17.595102	0
137900	17.646043	1
138100	17.697056	3
138300	17.748144	1
138500	17.799304	0
138700	17.850539	0
138900	17.901847	1
139100	17.953229	1
139300	18.004685	60
139500	18.056214	0
139700	18.107816	0
139900	18.159493	0
140100	18.211243	0
140300	18.263066	0
140500	18.314964	1
140700	18.366934	0
140900	18.418979	1
141100	18.471097	1
141300	18.523289	0
141500	18.575554	0
141700	18.627893	1
141900	18.680306	0
142100	18.732792	0
142300	18.785352	0
142500	18.837986	0
142700	18.890693	0
142900	18.943474	0
143100	18.996329	2157
143300	19.049257	20
143500	19.102258	3
143700	19.155334	0
143900	19.208483	0
144100	19.261705	0
144300	19.315002	0
144500	19.368372	0
144700	19.421815	0
144900	19.475332	0
145100	19.528923	0
145300	19.582588	0
145500	19.636326	0
145700	19.690137	0
145900	19.744023	0
146100	19.797982	0
146300	19.852014	0
146500	19.906120	0
146700	19.960300	0
146900	20.014554	0
147100	20.068881	0
147300	20.123282	0
147500	20.177756	0
147700	20.232304	0
147900	20.286926	0
148100	20.341621	0
148300	20.396390	0
148500	20.451233	0
148700	20.506149	0
148900	20.561139	0
149100	20.616202	1
149300	20.671339	0
149500	20.726550	0
149700	20.781834	0
149900	20.837192	0
150100	20.892624	0
150300	20.948129	0
150500	21.003708	1
150700	21.059360	0
150900	21.115087	0
151100	21.170886	0
151300	21.226760	0
151500	21.282707	0
151700	21.338727	0
151900	21.394822	0
152100	21.450990	0
152300	21.507231	0
152500	21.563546	0
152700	21.619935	0
152900	21.676398	0
153100	21.732934	0
153300	21.789544	0
153500	21.846227	0
153700	21.902984	0
153900	21.959815	0
154100	22.016719	0
154300	22.073697	0
154500	22.130748	0
154700	22.187873	0
154900	22.245072	0
155100	22.302345	1
155300	22.359691	1
155500	22.417110	0
155700	22.474604	0
155900	22.532171	0
156100	22.589811	1
156300	22.647525	0
156500	22.705313	0
156700	22.763175	0
156900	22.821110	0
157100	22.879119	0
157300	22.937201	0
157500	22.995357	97
157700	23.053587	0
157900	23.111890	0
158100	23.170267	0
158300	23.228717	0
158500	23.287242	0
158700	23.345839	1
158900	23.404511	0
159100	23.463256	0
159300	23.522075	0
159500	23.580967	26
159700	23.639933	2
159900	23.698973	1
160100	23.758086	1
160300	23.817273	1
160500	23.876533	17
160700	23.935867	61
160900	23.995275	78444
161100	24.054756	174
161300	24.114311	7
161500	24.173940	7
161700	24.233642	9
161900	24.293418	3
162100	24.353268	0
162300	24.413191	3
162500	24.473188	0
162700	24.533258	3
162900	24.593402	16
163100	24.653620	6
163300	24.713912	7
163500	24.774277	5
163700	24.834715	4
163900	24.895227	35
164100	24.955813	98
164300	25.016473	140596
164500	25.077206	186
164700	25.138013	21
164900	25.198893	15
165100	25.259847	10
165300	25.320875	8
165500	25.381976	6
165700	25.443151	5
165900	25.504400	3
166100	25.565722	4
166300	25.627118	3
166500	25.688587	4
166700	25.750130	2
166900	25.811747	4
167100	25.873437	7
167300	25.935201	11
167500	25.997039	57421
167700	26.058950	1468
167900	26.120935	228
168100	26.182994	82
168300	26.245126	35
168500	26.307332	15
168700	26.369611	15
168900	26.431964	10
169100	26.494391	13
169300	26.556891	5
169500	26.619465	3
169700	26.682113	4
169900	26.744834	0
170100	26.807629	1
170300	26.870497	1
170500	26.933439	2
170700	26.996455	1369
170900	27.059544	196
171100	27.122707	8
171300	27.185944	3
171500	27.249254	1
171700	27.312638	0
171900	27.376096	0
172100	27.439627	1
172300	27.503232	0
172500	27.566910	1
172700	27.630662	2
172900	27.694488	0
173100	27.758387	1
173300	27.822360	0
173500	27.886407	0
173700	27.950527	30
173900	28.014721	39
174100	28.078989	0
174300	28.143330	1
174500	28.207744	0
174700	28.272233	3
174900	28.336795	0
175100	28.401431	0
175300	28.466140	0
175500	28.530923	0
175700	28.595779	0
175900	28.660709	0
176100	28.725713	0
176300	28.790791	0
176500	28.855942	0
176700	28.921167	3
176900	28.986465	180
177100	29.051837	4
177300	29.117283	1
177500	29.182802	1
177700	29.248395	0
177900	29.314061	0
178100	29.379801	1
178300	29.445615	1
178500	29.511503	0
178700	29.577464	0
178900	29.643498	0
179100	29.709607	0
179300	29.775788	0
179500	29.842044	0
179700	29.908373	1
179900	29.974776	30
180100	30.041253	3
180300	30.107803	0
180500	30.174426	0
180700	30.241124	0
180900	30.307895	0
181100	30.374739	1
181300	30.441658	0
181500	30.508650	0
181700	30.575715	0
181900	30.642854	0
182100	30.710067	0
182300	30.777353	0
182500	30.844714	0
182700	30.912147	0
182900	30.979655	43
183100	31.047236	208
183300	31.114890	0
183500	31.182618	0
183700	31.250420	0
183900	31.318296	1
184100	31.386245	0
184300	31.454268	1
184500	31.522364	0
184700	31.590534	0
184900	31.658778	0
185100	31.727095	0
185300	31.795486	0
185500	31.863950	0
185700	31.932488	45
185900	32.001100	807
186100	32.069786	1
186300	32.138545	0
186500	32.207378	0
186700	32.276284	1
186900	32.345264	1
187100	32.414317	0
187300	32.483445	1
187500	32.552646	0
187700	32.621920	0
187900	32.691268	0
188100	32.760690	0
188300	32.830185	3
188500	32.899754	0
188700	32.969397	457
188900	33.039113	16
189100	33.108903	0
189300	33.178767	0
189500	33.248704	2
189700	33.318715	0
189900	33.388799	0
190100	33.458957	0
190300	33.529189	0
190500	33.599494	0
190700	33.669873	0
190900	33.740326	0
191100	33.810852	0
191300	33.881452	0
191500	33.952126	24
191700	34.022873	9
191900	34.093694	1
192100	34.164588	0
192300	34.235556	0
192500	34.306598	1
192700	34.377713	0
192900	34.448902	26
193100	34.520165	3
193300	34.591501	4
193500	34.662911	3
193700	34.734394	2
193900	34.805951	10
194100	34.877582	23
194300	34.949286	122043
194500	35.021064	5554
194700	35.092916	192
194900	35.164841	69
195100	35.236840	26
195300	35.308913	17
195500	35.381059	15
195700	35.453279	9
195900	35.525572	8
196100	35.597939	1
196300	35.670380	6
196500	35.742894	0
196700	35.815482	3
196900	35.888144	7
197100	35.960879	6269
197300	36.033688	15084
197500	36.106570	7
197700	36.179526	6
197900	36.252556	0
198100	36.325659	0
198300	36.398836	4
198500	36.472087	6
198700	36.545411	1
198900	36.618809	0
199100	36.692281	1
199300	36.765826	3
199500	36.839445	6
199700	36.913137	109
199900	36.986903	46117
200100	37.060743	260
200300	37.134656	34
200500	37.208643	17
200700	37.282704	4
200900	37.356838	4
201100	37.431046	6
201300	37.505328	4
201500	37.579683	1
201700	37.654111	0
201900	37.728614	0
202100	37.803190	5
202300	37.877840	0
202500	37.952563	23
202700	38.027360	2319
202900	38.102230	3
203100	38.177175	3
203300	38.252192	2
203500	38.327284	2
203700	38.402449	1
203900	38.477688	0
204100	38.553000	1
204300	38.628386	0
204500	38.703846	0
204700	38.779379	0
204900	38.854986	1
205100	38.930666	2
205300	39.006420	1035
205500	39.082248	17
205700	39.158150	1
205900	39.234125	0
206100	39.310173	1
206300	39.386296	0
206500	39.462492	0
206700	39.538761	2
206900	39.615104	3
207100	39.691521	0
207300	39.768012	1
207500	39.844576	1
207700	39.921214	1
207900	39.997925	3239
208100	40.074710	12
208300	40.151569	3
