# Binning: 200 channels
# Deadtime Correction: on
Channel	m/z	Intensity
100	0.000228	0
300	0.000447	155
500	0.000740	2
700	0.001107	0
900	0.001548	0
1100	0.002061	0
1300	0.002649	3
1500	0.003309	6
1700	0.004044	7
1900	0.004852	0
2100	0.005733	0
2300	0.006688	0
2500	0.007717	1
2700	0.008819	0
2900	0.009994	0
3100	0.011243	0
3300	0.012566	1
3500	0.013962	0
3700	0.015432	0
3900	0.016975	0
4100	0.018592	0
4300	0.020282	0
4500	0.022046	0
4700	0.023883	0
4900	0.025794	0
5100	0.027778	0
5300	0.029836	0
5500	0.031967	0
5700	0.034172	0
5900	0.036451	0
6100	0.038802	0
6300	0.041228	0
6500	0.043727	0
6700	0.046300	0
6900	0.048946	1
7100	0.051665	0
7300	0.054458	0
7500	0.057325	0
7700	0.060265	0
7900	0.063279	0
8100	0.066366	0
8300	0.069527	0
8500	0.072761	0
8700	0.076069	0
8900	0.079450	0
9100	0.082905	0
9300	0.086434	1
9500	0.090035	1
9700	0.093711	0
9900	0.097460	0
10100	0.101282	0
10300	0.105178	0
10500	0.109148	0
10700	0.113191	0
10900	0.117308	0
11100	0.121498	0
11300	0.125761	0
11500	0.130099	0
11700	0.134509	0
11900	0.138994	0
12100	0.143551	0
12300	0.148183	0
12500	0.152887	0
12700	0.157666	0
12900	0.162518	0
13100	0.167443	0
13300	0.172442	0
13500	0.177514	0
13700	0.182660	0
13900	0.187880	0
14100	0.193173	0
14300	0.198540	0
14500	0.203980	0
14700	0.209493	0
14900	0.215080	0
15100	0.220741	0
15300	0.226475	0
15500	0.232283	0
15700	0.238164	1
15900	0.244119	0
16100	0.250147	0
16300	0.256249	0
16500	0.262424	0
16700	0.268673	0
16900	0.274996	0
17100	0.281392	0
17300	0.287861	0
17500	0.294404	0
17700	0.301021	0
17900	0.307711	1
18100	0.314474	0
18300	0.321311	0
18500	0.328222	0
18700	0.335206	0
18900	0.342264	0
19100	0.349395	0
19300	0.356600	0
19500	0.363878	0
19700	0.371230	0
19900	0.378655	0
20100	0.386154	0
20300	0.393726	0
20500	0.401372	0
20700	0.409091	0
20900	0.416884	0
21100	0.424751	0
21300	0.432691	0
21500	0.440704	0
21700	0.448791	0
21900	0.456952	0
22100	0.465186	0
22300	0.473494	0
22500	0.481875	0
22700	0.490329	0
22900	0.498858	0
23100	0.507459	0
23300	0.516135	0
23500	0.524883	0
23700	0.533706	0
23900	0.542602	0
24100	0.551571	0
24300	0.560614	0
24500	0.569730	0
24700	0.578920	0
24900	0.588184	0
25100	0.597521	0
25300	0.606931	0
25500	0.616415	0
25700	0.625973	0
25900	0.635604	0
26100	0.645308	0
26300	0.655087	0
26500	0.664938	0
26700	0.674863	0
26900	0.684862	0
27100	0.694934	0
27300	0.705080	0
27500	0.715300	0
27700	0.725592	0
27900	0.735959	0
28100	0.746399	0
28300	0.756912	0
28500	0.767499	0
28700	0.778159	0
28900	0.788893	0
29100	0.799701	0
29300	0.810582	0
29500	0.821537	0
29700	0.832565	0
29900	0.843666	0
30100	0.854842	0
30300	0.866090	0
30500	0.877412	0
30700	0.888808	0
30900	0.900277	0
31100	0.911820	1
31300	0.923437	0
31500	0.935126	0
31700	0.946890	3
31900	0.958727	20
32100	0.970637	42
32300	0.982621	47
32500	0.994678	55
32700	1.006809	918149
32900	1.019014	1091
33100	1.031292	149
33300	1.043644	74
33500	1.056069	49
33700	1.068567	24
33900	1.081140	17
34100	1.093785	15
34300	1.106504	17
34500	1.119297	12
34700	1.132163	9
34900	1.145103	5
35100	1.158117	6
35300	1.171203	5
35500	1.184364	1
35700	1.197598	3
35900	1.210905	2
36100	1.224286	1
36300	1.237741	0
36500	1.251269	1
36700	1.264870	2
36900	1.278545	1
37100	1.292294	4
37300	1.306116	0
37500	1.320012	0
37700	1.333981	2
37900	1.348023	1
38100	1.362140	0
38300	1.376329	0
38500	1.390593	0
38700	1.404929	0
38900	1.419340	1
39100	1.433824	0
39300	1.448381	0
39500	1.463012	0
39700	1.477716	2
39900	1.492494	0
40100	1.507346	0
40300	1.522271	0
40500	1.537269	0
40700	1.552341	0
40900	1.567487	0
41100	1.582706	0
41300	1.597999	0
41500	1.613365	0
41700	1.628805	0
41900	1.644318	0
42100	1.659905	0
42300	1.675565	0
42500	1.691299	1
42700	1.707106	0
42900	1.722987	0
43100	1.738941	0
43300	1.754969	0
43500	1.771071	0
43700	1.787246	0
43900	1.803494	0
44100	1.819816	0
44300	1.836212	0
44500	1.852681	0
44700	1.869223	0
44900	1.885839	0
45100	1.902529	0
45300	1.919292	1
45500	1.936129	0
45700	1.953039	0
45900	1.970023	0
46100	1.987080	0
46300	2.004211	0
46500	2.021415	92
46700	2.038693	1
46900	2.056045	0
47100	2.073470	0
47300	2.090968	1
47500	2.108540	1
47700	2.126185	0
47900	2.143904	0
48100	2.161697	0
48300	2.179563	0
48500	2.197503	0
48700	2.215516	0
48900	2.233602	1
49100	2.251763	0
49300	2.269996	0
49500	2.288304	0
49700	2.306684	1
49900	2.325139	0
50100	2.343666	0
50300	2.362268	0
50500	2.380943	0
50700	2.399691	0
50900	2.418513	0
51100	2.437408	0
51300	2.456377	0
51500	2.475420	0
51700	2.494536	0
51900	2.513725	0
52100	2.532989	0
52300	2.552325	0
52500	2.571735	0
52700	2.591219	0
52900	2.610776	0
53100	2.630407	0
53300	2.650111	0
53500	2.669889	0
53700	2.689740	0
53900	2.709665	0
54100	2.729663	0
54300	2.749735	0
54500	2.769881	0
54700	2.790100	0
54900	2.810392	0
55100	2.830758	0
55300	2.851197	0
55500	2.871711	0
55700	2.892297	1
55900	2.912957	0
56100	2.933691	0
56300	2.954498	0
56500	2.975379	0
56700	2.996333	0
56900	3.017361	0
57100	3.038462	1
57300	3.059637	1
57500	3.080885	0
57700	3.102207	0
57900	3.123602	0
58100	3.145071	0
58300	3.166613	0
58500	3.188229	0
58700	3.209919	0
58900	3.231682	0
59100	3.253518	0
59300	3.275428	0
59500	3.297412	0
59700	3.319469	0
59900	3.341599	0
60100	3.363804	1
60300	3.386081	0
60500	3.408433	0
60700	3.430857	0
60900	3.453355	0
61100	3.475927	0
61300	3.498573	0
61500	3.521291	0
61700	3.544084	0
61900	3.566950	0
62100	3.589889	0
62300	3.612902	0
62500	3.635988	0
62700	3.659148	0
62900	3.682382	0
63100	3.705689	1
63300	3.729070	0
63500	3.752524	0
63700	3.776051	0
63900	3.799652	0
64100	3.823327	0
64300	3.847075	0
64500	3.870897	0
64700	3.894792	0
64900	3.918761	0
65100	3.942803	0
65300	3.966919	1
65500	3.991109	0
65700	4.015371	0
65900	4.039708	0
66100	4.064118	0
66300	4.088601	0
66500	4.113158	0
66700	4.137789	0
66900	4.162493	0
67100	4.187270	0
67300	4.212122	0
67500	4.237046	0
67700	4.262044	0
67900	4.287116	0
68100	4.312261	0
68300	4.337480	0
68500	4.362772	1
68700	4.388138	0
68900	4.413577	0
69100	4.439090	0
69300	4.464677	0
69500	4.490336	0
69700	4.516070	0
69900	4.541877	0
70100	4.567757	0
70300	4.593711	0
70500	4.619739	0
70700	4.645840	0
70900	4.672014	0
71100	4.698263	0
71300	4.724584	0
71500	4.750979	0
71700	4.777448	0
71900	4.803990	0
72100	4.830606	0
72300	4.857295	0
72500	4.884058	0
72700	4.910894	0
72900	4.937804	0
73100	4.964788	0
73300	4.991844	0
73500	5.018975	0
73700	5.046179	0
73900	5.073456	0
74100	5.100807	0
74300	5.128232	0
74500	5.155730	0
74700	5.183302	0
74900	5.210947	0
75100	5.238665	0
75300	5.266457	0
75500	5.294323	0
75700	5.322262	0
75900	5.350275	0
76100	5.378361	1
76300	5.406521	1
76500	5.434754	0
76700	5.463061	0
76900	5.491442	0
77100	5.519896	0
77300	5.548423	0
77500	5.577024	0
77700	5.605698	0
77900	5.634447	0
78100	5.663268	0
78300	5.692163	0
78500	5.721132	0
78700	5.750174	0
78900	5.779289	0
79100	5.808479	0
79300	5.837741	0
79500	5.867078	0
79700	5.896487	0
79900	5.925971	0
80100	5.955527	0
80300	5.985158	0
80500	6.014862	0
80700	6.044639	0
80900	6.074490	0
81100	6.104414	0
81300	6.134412	0
81500	6.164484	0
81700	6.194629	0
81900	6.224847	0
82100	6.255139	0
82300	6.285505	0
82500	6.315944	0
82700	6.346457	0
82900	6.377043	0
83100	6.407703	0
83300	6.438436	0
83500	6.469243	0
83700	6.500123	0
83900	6.531077	0
84100	6.562104	0
84300	6.593205	0
84500	6.624379	0
84700	6.655627	0
84900	6.686949	0
85100	6.718344	0
85300	6.749812	0
85500	6.781354	0
85700	6.812970	0
85900	6.844659	0
86100	6.876421	0
86300	6.908257	0
86500	6.940167	0
86700	6.972150	0
86900	7.004207	0
87100	7.036337	0
87300	7.068541	0
87500	7.100818	0
87700	7.133169	0
87900	7.165593	0
88100	7.198091	0
88300	7.230663	0
88500	7.263308	0
88700	7.296026	1
88900	7.328818	0
89100	7.361684	1
89300	7.394623	0
89500	7.427635	0
89700	7.460721	0
89900	7.493881	0
90100	7.527114	0
90300	7.560421	0
90500	7.593801	0
90700	7.627255	0
90900	7.660782	0
91100	7.694383	0
91300	7.728057	0
91500	7.761805	0
91700	7.795626	0
91900	7.829521	0
92100	7.863489	0
92300	7.897531	0
92500	7.931647	0
92700	7.965836	0
92900	8.000098	0
93100	8.034434	0
93300	8.068844	0
93500	8.103327	0
93700	8.137883	0
93900	8.172514	0
94100	8.207217	1
94300	8.241994	0
94500	8.276845	0
94700	8.311769	0
94900	8.346767	0
95100	8.381838	0
95300	8.416983	0
95500	8.452202	0
95700	8.487493	0
95900	8.522859	0
96100	8.558298	1
96300	8.593810	0
96500	8.629396	0
96700	8.665056	0
96900	8.700789	1
97100	8.736595	0
97300	8.772475	0
97500	8.808429	0
97700	8.844456	0
97900	8.880557	0
98100	8.916731	0
98300	8.952979	0
98500	8.989300	0
98700	9.025695	0
98900	9.062163	0
99100	9.098705	0
99300	9.135320	0
99500	9.172009	0
99700	9.208772	0
99900	9.245608	0
100100	9.282517	0
100300	9.319500	0
100500	9.356557	0
100700	9.393687	0
100900	9.430890	0
101100	9.468167	1
101300	9.505518	0
101500	9.542942	0
101700	9.580440	1
101900	9.618011	0
102100	9.655656	0
102300	9.693374	0
102500	9.731166	0
102700	9.769031	0
102900	9.806970	0
103100	9.844982	0
103300	9.883068	0
103500	9.921227	0
103700	9.959460	0
103900	9.997767	1
104100	10.036147	0
104300	10.074600	0
104500	10.113127	0
104700	10.151728	0
104900	10.190402	0
105100	10.229150	0
105300	10.267971	0
105500	10.306866	0
105700	10.345834	1
105900	10.384875	1
106100	10.423991	0
106300	10.463180	0
106500	10.502442	0
106700	10.541778	0
106900	10.581187	0
107100	10.620670	0
107300	10.660226	0
107500	10.699856	0
107700	10.739560	0
107900	10.779337	0
108100	10.819187	0
108300	10.859111	0
108500	10.899109	0
108700	10.939180	0
108900	10.979325	0
109100	11.019543	2
109300	11.059835	1
109500	11.100200	0
109700	11.140638	0
109900	11.181151	0
110100	11.221737	0
110300	11.262396	0
110500	11.303129	1
110700	11.343935	0
110900	11.384815	0
111100	11.425768	0
111300	11.466795	0
111500	11.507896	0
111700	11.549070	0
111900	11.590317	0
112100	11.631638	0
112300	11.673033	0
112500	11.714501	2
112700	11.756043	4
112900	11.797658	0
113100	11.839347	5
113300	11.881109	0
113500	11.922945	1
113700	11.964854	72
113900	12.006837	119763
114100	12.048893	28
114300	12.091023	1
114500	12.133226	5
114700	12.175503	4
114900	12.217853	2
115100	12.260277	6
115300	12.302775	5
115500	12.345346	4
115700	12.387990	3
115900	12.430709	3
116100	12.473500	4
116300	12.516365	1
116500	12.559304	4
116700	12.602316	4
116900	12.645402	3
117100	12.688561	6
117300	12.731794	4
117500	12.775100	4
117700	12.818480	1
117900	12.861933	5
118100	12.905460	3
118300	12.949060	3
118500	12.992734	132987
118700	13.036482	1562
118900	13.080303	5
119100	13.124197	11
119300	13.168165	5
119500	13.212207	10
119700	13.256322	8
119900	13.300510	8
120100	13.344772	9
120300	13.389108	4
120500	13.433517	0
120700	13.478000	5
120900	13.522556	28
121100	13.567186	15
121300	13.611889	3
121500	13.656666	2
121700	13.701516	2
121900	13.746440	1
122100	13.791438	2
122300	13.836509	2
122500	13.881653	3
122700	13.926871	1
122900	13.972162	0
123100	14.017527	11525
123300	14.062966	5
123500	14.108478	2
123700	14.154064	3
123900	14.199723	7
124100	14.245455	2
124300	14.291262	3
124500	14.337141	4
124700	14.383095	0
124900	14.429121	3
125100	14.475222	0
125300	14.521395	0
125500	14.567643	2
125700	14.613964	20
125900	14.660358	2
126100	14.706826	0
126300	14.753367	1
126500	14.799982	1
126700	14.846671	2
126900	14.893433	0
127100	14.940268	1
127300	14.987178	20
127500	15.034160	3363
127700	15.081216	17
127900	15.128346	5
128100	15.175549	5
128300	15.222826	1
128500	15.270176	0
128700	15.317600	0
128900	15.365097	1
129100	15.412668	1
129300	15.460312	1
129500	15.508030	0
129700	15.555822	0
129900	15.603686	0
130100	15.651625	5
130300	15.699637	2
130500	15.747722	1
130700	15.795881	6
130900	15.844114	6
131100	15.892420	2
131300	15.940800	10
131500	15.989253	162747
131700	16.037779	251
131900	16.086380	7
132100	16.135053	4
132300	16.183801	2
132500	16.232621	0
132700	16.281516	5
132900	16.330484	3
133100	16.379525	2
133300	16.428640	4
133500	16.477828	1
133700	16.527090	2
133900	16.576426	1
134100	16.625835	2
134300	16.675317	2
134500	16.724873	1
134700	16.774503	1
134900	16.824206	4
135100	16.873982	0
135300	16.923832	0
135500	16.973756	392
135700	17.023753	86511
135900	17.073824	37
136100	17.123968	14
136300	17.174186	6
136500	17.224477	3
136700	17.274842	6
136900	17.325281	3
137100	17.375792	2
137300	17.426378	1
137500	17.477037	4
137700	17.527769	1
137900	17.578575	0
138100	17.629455	3
138300	17.680408	15
138500	17.731434	6
138700	17.782534	2
138900	17.833708	2
139100	17.884955	2
139300	17.936276	2
139500	17.987670	346
139700	18.039138	3
139900	18.090679	0
140100	18.142294	0
140300	18.193982	2
140500	18.245744	0
140700	18.297579	2
140900	18.349488	1
141100	18.401471	1
141300	18.453527	2
141500	18.505656	0
141700	18.557859	1
141900	18.610136	2
142100	18.662486	2
142300	18.714909	1
142500	18.767406	3
142700	18.819977	1
142900	18.872621	0
143100	18.925339	3
143300	18.978130	35287
143500	19.030995	1885
143700	19.083933	17
143900	19.136945	6
144100	19.190030	1
144300	19.243189	3
144500	19.296421	0
144700	19.349727	0
144900	19.403107	2
145100	19.456559	3
145300	19.510086	0
145500	19.563686	0
145700	19.617359	0
145900	19.671106	2
146100	19.724927	2
146300	19.778821	0
146500	19.832789	1
146700	19.886830	1
146900	19.940945	0
147100	19.995133	0
147300	20.049395	0
147500	20.103730	1
147700	20.158139	0
147900	20.212621	2
148100	20.267177	0
148300	20.321806	0
148500	20.376509	0
148700	20.431285	0
148900	20.486135	0
149100	20.541059	0
149300	20.596056	1
149500	20.651126	0
149700	20.706271	0
149900	20.761488	1
150100	20.816779	0
150300	20.872144	1
150500	20.927582	0
150700	20.983094	0
150900	21.038679	0
151100	21.094338	0
151300	21.150070	0
151500	21.205876	0
151700	21.261755	1
151900	21.317708	0
152100	21.373734	0
152300	21.429834	0
152500	21.486008	2
152700	21.542255	0
152900	21.598575	0
153100	21.654969	1
153300	21.711437	3
153500	21.767978	0
153700	21.824592	0
153900	21.881280	0
154100	21.938042	0
154300	21.994877	1
154500	22.051786	1
154700	22.108768	0
154900	22.165824	0
155100	22.222953	1
155300	22.280156	1
155500	22.337432	1
155700	22.394782	0
155900	22.452205	0
156100	22.509702	0
156300	22.567273	0
156500	22.624917	0
156700	22.682634	0
156900	22.740425	0
157100	22.798290	1
157300	22.856228	0
157500	22.914239	0
157700	22.972325	111
157900	23.030483	20
158100	23.088715	2
158300	23.147021	1
158500	23.205400	0
158700	23.263853	1
158900	23.322379	0
159100	23.380979	0
159300	23.439652	0
159500	23.498399	0
159700	23.557220	0
159900	23.616114	2
160100	23.675081	2
160300	23.734122	0
160500	23.793236	23
160700	23.852425	2
160900	23.911686	35
161100	23.971021	190973
161300	24.030430	183840
161500	24.089912	35
161700	24.149467	11
161900	24.209097	19
162100	24.268799	12
162300	24.328576	25
162500	24.388425	26
162700	24.448349	14
162900	24.508345	13
163100	24.568416	25
163300	24.628560	9
163500	24.688777	12
163700	24.749068	15
163900	24.809432	49
164100	24.869870	12
164300	24.930382	31
164500	24.990967	582807
164700	25.051625	3434
164900	25.112358	106
165100	25.173163	41
165300	25.234042	33
165500	25.294995	30
165700	25.356021	17
165900	25.417121	22
166100	25.478294	25
166300	25.539541	19
166500	25.600861	20
166700	25.662255	9
166900	25.723722	10
167100	25.785263	20
167300	25.846878	6
167500	25.908565	6
167700	25.970327	20405
167900	26.032162	152085
168100	26.094070	935
168300	26.156052	260
168500	26.218108	127
168700	26.280237	82
168900	26.342440	43
169100	26.404716	32
169300	26.467065	27
169500	26.529489	18
169700	26.591985	8
169900	26.654556	12
170100	26.717199	8
170300	26.779917	2
170500	26.842707	3
170700	26.905572	8
170900	26.968510	286
171100	27.031521	6365
171300	27.094606	34
171500	27.157764	13
171700	27.220996	8
171900	27.284302	3
172100	27.347681	3
172300	27.411134	5
172500	27.474660	3
172700	27.538259	3
172900	27.601932	4
173100	27.665679	2
173300	27.729499	3
173500	27.793393	3
173700	27.857360	3
173900	27.921401	1
174100	27.985515	188
174300	28.049703	103
174500	28.113964	1
174700	28.178299	0
174900	28.242708	0
175100	28.307190	1
175300	28.371745	1
175500	28.436374	0
175700	28.501077	3
175900	28.565853	1
176100	28.630702	1
176300	28.695625	3
176500	28.760622	0
176700	28.825692	2
176900	28.890836	1
177100	28.956053	116
177300	29.021344	696
177500	29.086708	6
177700	29.152146	3
177900	29.217657	1
178100	29.283242	2
178300	29.348900	1
178500	29.414632	2
178700	29.480437	2
178900	29.546316	0
179100	29.612269	1
179300	29.678295	1
179500	29.744394	3
179700	29.810567	1
179900	29.876814	0
180100	29.943134	5
180300	30.009528	94
180500	30.075995	2
180700	30.142536	3
180900	30.209150	0
181100	30.275837	1
181300	30.342599	1
181500	30.409434	3
181700	30.476342	1
181900	30.543324	1
182100	30.610379	1
182300	30.677508	1
182500	30.744710	1
182700	30.811986	0
182900	30.879336	0
183100	30.946759	10
183300	31.014255	1397
183500	31.081825	12
183700	31.149469	3
183900	31.217186	0
184100	31.284977	0
184300	31.352841	0
184500	31.420778	2
184700	31.488790	1
184900	31.556874	1
185100	31.625033	0
185300	31.693264	3
185500	31.761570	1
185700	31.829949	2
185900	31.898401	1
186100	31.966927	2950
186300	32.035526	48
186500	32.104199	2
186700	32.172946	1
186900	32.241766	0
187100	32.310659	0
187300	32.379626	0
187500	32.448667	3
187700	32.517781	1
187900	32.586969	1
188100	32.656230	1
188300	32.725564	1
188500	32.794973	1
188700	32.864454	0
188900	32.934010	1
189100	33.003638	1061
189300	33.073341	1
189500	33.143117	1
189700	33.212966	1
189900	33.282889	3
190100	33.352885	2
190300	33.422955	1
190500	33.493099	0
190700	33.563316	0
190900	33.633606	0
191100	33.703970	0
191300	33.774408	0
191500	33.844919	0
191700	33.915504	1
191900	33.986162	100
192100	34.056894	2
192300	34.127699	0
192500	34.198578	0
192700	34.269530	0
192900	34.340556	0
193100	34.411655	1
193300	34.482828	1
193500	34.554074	0
193700	34.625394	0
193900	34.696787	25
194100	34.768254	4
194300	34.839795	1
194500	34.911409	139
194700	34.983096	605184
194900	35.054858	2855
195100	35.126692	653
195300	35.198600	244
195500	35.270582	116
195700	35.342637	57
195900	35.414766	42
196100	35.486968	27
196300	35.559244	23
196500	35.631593	24
196700	35.704016	15
196900	35.776512	13
197100	35.849082	11
197300	35.921725	11
197500	35.994442	56609
197700	36.067233	53
197900	36.140097	7
198100	36.213034	9
198300	36.286045	9
198500	36.359130	4
198700	36.432288	8
198900	36.505519	6
199100	36.578825	4
199300	36.652203	2
199500	36.725655	13
199700	36.799181	3
199900	36.872780	4
200100	36.946453	191978
200300	37.020199	22241
200500	37.094019	459
200700	37.167912	135
200900	37.241879	43
201100	37.315920	24
201300	37.390034	19
201500	37.464221	16
201700	37.538482	9
201900	37.612817	10
202100	37.687225	6
202300	37.761706	2
202500	37.836261	1
202700	37.910890	4
202900	37.985592	7813
203100	38.060368	1575
203300	38.135217	6
203500	38.210139	4
203700	38.285136	5
203900	38.360205	4
204100	38.435349	4
204300	38.510566	13
204500	38.585856	6
204700	38.661220	4
204900	38.736657	2
205100	38.812168	4
205300	38.887753	2
205500	38.963410	113
205700	39.039142	5728
205900	39.114947	22
206100	39.190826	12
206300	39.266778	4
206500	39.342803	1
206700	39.418902	3
206900	39.495075	6
207100	39.571321	19
207300	39.647641	7
