# Binning: 200 channels
# Deadtime Correction: on
Channel	m/z	Intensity
100	0.000280	0
300	0.000520	59
500	0.000833	1
700	0.001220	0
900	0.001681	0
1100	0.002215	0
1300	0.002823	20
1500	0.003504	39
1700	0.004259	13
1900	0.005087	7
2100	0.005989	1
2300	0.006965	2
2500	0.008014	0
2700	0.009136	1
2900	0.010333	1
3100	0.011603	1
3300	0.012946	1
3500	0.014363	1
3700	0.015854	0
3900	0.017418	0
4100	0.019055	0
4300	0.020767	0
4500	0.022552	0
4700	0.024410	1
4900	0.026342	0
5100	0.028348	0
5300	0.030427	0
5500	0.032580	0
5700	0.034806	0
5900	0.037106	0
6100	0.039479	0
6300	0.041926	0
6500	0.044447	0
6700	0.047041	1
6900	0.049709	0
7100	0.052450	0
7300	0.055265	0
7500	0.058154	0
7700	0.061116	0
7900	0.064151	0
8100	0.067260	0
8300	0.070443	0
8500	0.073700	0
8700	0.077029	0
8900	0.080433	0
9100	0.083910	0
9300	0.087461	0
9500	0.091085	0
9700	0.094783	0
9900	0.098554	0
10100	0.102399	0
10300	0.106318	0
10500	0.110310	0
10700	0.114375	0
10900	0.118515	0
11100	0.122727	0
11300	0.127014	0
11500	0.131374	0
11700	0.135807	0
11900	0.140314	0
12100	0.144895	0
12300	0.149549	0
12500	0.154277	0
12700	0.159079	0
12900	0.163953	0
13100	0.168902	0
13300	0.173924	0
13500	0.179020	0
13700	0.184189	0
13900	0.189432	0
14100	0.194748	0
14300	0.200138	0
14500	0.205602	0
14700	0.211139	0
14900	0.216750	0
15100	0.222434	0
15300	0.228192	0
15500	0.234023	0
15700	0.239928	0
15900	0.245907	0
16100	0.251959	0
16300	0.258085	0
16500	0.264284	0
16700	0.270557	0
16900	0.276904	0
17100	0.283324	0
17300	0.289817	0
17500	0.296384	0
17700	0.303025	0
17900	0.309740	0
18100	0.316527	0
18300	0.323389	0
18500	0.330324	0
18700	0.337333	0
18900	0.344415	0
19100	0.351571	0
19300	0.358800	0
19500	0.366103	0
19700	0.373479	0
19900	0.380929	0
20100	0.388453	0
20300	0.396050	0
20500	0.403721	0
20700	0.411465	0
20900	0.419283	0
21100	0.427175	0
21300	0.435140	0
21500	0.443179	0
21700	0.451291	0
21900	0.459477	0
22100	0.467736	0
22300	0.476069	0
22500	0.484476	0
22700	0.492956	0
22900	0.501509	0
23100	0.510137	0
23300	0.518837	0
23500	0.527612	0
23700	0.536460	0
23900	0.545381	0
24100	0.554376	0
24300	0.563445	0
24500	0.572587	0
24700	0.581803	0
24900	0.591093	0
25100	0.600456	0
25300	0.609892	0
25500	0.619402	0
25700	0.628986	0
25900	0.638643	0
26100	0.648374	0
26300	0.658179	0
26500	0.668057	0
26700	0.678008	0
26900	0.688033	0
27100	0.698132	0
27300	0.708305	0
27500	0.718550	0
27700	0.728870	0
27900	0.739263	0
28100	0.749729	0
28300	0.760270	0
28500	0.770883	0
28700	0.781571	0
28900	0.792332	0
29100	0.803166	0
29300	0.814074	0
29500	0.825056	0
29700	0.836111	1
29900	0.847240	0
30100	0.858442	0
30300	0.869718	0
30500	0.881068	0
30700	0.892491	0
30900	0.903987	2
31100	0.915557	0
31300	0.927201	0
31500	0.938919	2
31700	0.950710	0
31900	0.962574	66
32100	0.974512	51
32300	0.986524	53
32500	0.998609	241
32700	1.010768	2304236
32900	1.023000	264
33100	1.035306	92
33300	1.047686	60
33500	1.060139	33
33700	1.072665	35
33900	1.085266	25
34100	1.097940	32
34300	1.110687	30
34500	1.123508	24
34700	1.136402	20
34900	1.149371	16
35100	1.162412	12
35300	1.175528	9
35500	1.188716	3
35700	1.201979	8
35900	1.215315	5
36100	1.228724	8
36300	1.242208	3
36500	1.255764	4
36700	1.269395	4
36900	1.283098	1
37100	1.296876	5
37300	1.310727	2
37500	1.324651	4
37700	1.338650	2
37900	1.352721	2
38100	1.366867	1
38300	1.381086	2
38500	1.395378	2
38700	1.409744	3
38900	1.424184	3
39100	1.438697	1
39300	1.453284	3
39500	1.467944	0
39700	1.482678	0
39900	1.497485	1
40100	1.512366	0
40300	1.527321	2
40500	1.542349	2
40700	1.557451	1
40900	1.572626	0
41100	1.587875	1
41300	1.603198	1
41500	1.618594	0
41700	1.634063	1
41900	1.649607	0
42100	1.665223	1
42300	1.680914	1
42500	1.696678	0
42700	1.712515	0
42900	1.728426	3
43100	1.744411	0
43300	1.760469	0
43500	1.776601	1
43700	1.792806	0
43900	1.809085	1
44100	1.825438	1
44300	1.841864	0
44500	1.858364	0
44700	1.874937	0
44900	1.891584	0
45100	1.908304	1
45300	1.925098	0
45500	1.941966	1
45700	1.958907	0
45900	1.975921	0
46100	1.993010	1
46300	2.010172	244
46500	2.027407	2
46700	2.044716	2
46900	2.062098	0
47100	2.079555	0
47300	2.097084	2
47500	2.114688	0
47700	2.132364	0
47900	2.150115	0
48100	2.167939	0
48300	2.185837	0
48500	2.203808	1
48700	2.221852	0
48900	2.239971	0
49100	2.258163	0
49300	2.276428	0
49500	2.294767	0
49700	2.313180	0
49900	2.331666	0
50100	2.350226	1
50300	2.368859	0
50500	2.387566	0
50700	2.406346	0
50900	2.425200	0
51100	2.444128	1
51300	2.463129	0
51500	2.482204	0
51700	2.501352	0
51900	2.520574	0
52100	2.539870	1
52300	2.559239	0
52500	2.578681	0
52700	2.598198	0
52900	2.617787	0
53100	2.637451	0
53300	2.657188	1
53500	2.676998	0
53700	2.696882	0
53900	2.716840	0
54100	2.736871	1
54300	2.756976	0
54500	2.777154	0
54700	2.797406	0
54900	2.817732	1
55100	2.838131	0
55300	2.858604	1
55500	2.879150	0
55700	2.899770	0
55900	2.920463	0
56100	2.941230	0
56300	2.962071	0
56500	2.982985	0
56700	3.003972	1
56900	3.025034	1
57100	3.046168	0
57300	3.067377	1
57500	3.088659	0
57700	3.110014	0
57900	3.131444	0
58100	3.152946	0
58300	3.174523	0
58500	3.196172	0
58700	3.217896	0
58900	3.239693	1
59100	3.261563	0
59300	3.283508	0
59500	3.305525	0
59700	3.327617	0
59900	3.349782	0
60100	3.372020	0
60300	3.394332	0
60500	3.416718	0
60700	3.439177	0
60900	3.461710	0
61100	3.484316	1
61300	3.506996	0
61500	3.529749	0
61700	3.552576	1
61900	3.575477	1
62100	3.598451	2
62300	3.621499	0
62500	3.644620	0
62700	3.667815	0
62900	3.691084	3
63100	3.714426	7
63300	3.737841	0
63500	3.761330	0
63700	3.784893	0
63900	3.808530	0
64100	3.832240	0
64300	3.856023	0
64500	3.879880	0
64700	3.903811	1
64900	3.927815	0
65100	3.951893	0
65300	3.976044	0
65500	4.000269	0
65700	4.024568	0
65900	4.048940	0
66100	4.073385	0
66300	4.097905	0
66500	4.122498	0
66700	4.147164	0
66900	4.171904	1
67100	4.196717	1
67300	4.221605	0
67500	4.246565	0
67700	4.271599	0
67900	4.296707	1
68100	4.321889	0
68300	4.347144	0
68500	4.372472	0
68700	4.397874	0
68900	4.423350	0
69100	4.448899	1
69300	4.474522	0
69500	4.500219	0
69700	4.525989	0
69900	4.551832	1
70100	4.577749	1
70300	4.603740	0
70500	4.629804	0
70700	4.655942	0
70900	4.682154	0
71100	4.708439	0
71300	4.734797	0
71500	4.761230	0
71700	4.787735	0
71900	4.814315	0
72100	4.840968	0
72300	4.867694	1
72500	4.894494	1
72700	4.921368	0
72900	4.948315	1
73100	4.975336	0
73300	5.002430	1
73500	5.029598	1
73700	5.056839	0
73900	5.084154	0
74100	5.111543	0
74300	5.139005	0
74500	5.166541	0
74700	5.194150	0
74900	5.221833	0
75100	5.249590	1
75300	5.277420	0
75500	5.305324	0
75700	5.333301	0
75900	5.361352	2
76100	5.389476	0
76300	5.417674	0
76500	5.445945	1
76700	5.474291	0
76900	5.502709	0
77100	5.531201	1
77300	5.559767	0
77500	5.588407	0
77700	5.617120	0
77900	5.645906	0
78100	5.674766	0
78300	5.703700	0
78500	5.732707	1
78700	5.761788	0
78900	5.790943	0
79100	5.820171	1
79300	5.849472	0
79500	5.878847	0
79700	5.908296	0
79900	5.937818	0
80100	5.967414	0
80300	5.997083	0
80500	6.026826	11
80700	6.056643	0
80900	6.086533	1
81100	6.116497	1
81300	6.146534	0
81500	6.176645	0
81700	6.206830	1
81900	6.237088	0
82100	6.267419	0
82300	6.297824	0
82500	6.328303	0
82700	6.358855	0
82900	6.389481	0
83100	6.420181	0
83300	6.450954	1
83500	6.481800	0
83700	6.512721	0
83900	6.543714	0
84100	6.574782	0
84300	6.605923	0
84500	6.637137	1
84700	6.668425	4
84900	6.699787	1
85100	6.731222	0
85300	6.762731	1
85500	6.794313	1
85700	6.825969	1
85900	6.857699	0
86100	6.889502	0
86300	6.921378	1
86500	6.953329	1
86700	6.985352	0
86900	7.017450	114
87100	7.049621	1
87300	7.081865	1
87500	7.114183	1
87700	7.146575	0
87900	7.179040	2
88100	7.211579	1
88300	7.244191	1
88500	7.276877	1
88700	7.309637	0
88900	7.342470	2
89100	7.375377	0
89300	7.408357	0
89500	7.441411	0
89700	7.474538	0
89900	7.507739	2
90100	7.541014	1
90300	7.574362	0
90500	7.607784	0
90700	7.641279	0
90900	7.674848	0
91100	7.708490	1
91300	7.742206	0
91500	7.775996	0
91700	7.809859	0
91900	7.843796	0
92100	7.877806	0
92300	7.911890	0
92500	7.946047	0
92700	7.980278	0
92900	8.014583	43
93100	8.048961	0
93300	8.083413	0
93500	8.117938	0
93700	8.152537	0
93900	8.187209	0
94100	8.221955	0
94300	8.256775	0
94500	8.291668	1
94700	8.326635	0
94900	8.361675	0
95100	8.396789	0
95300	8.431977	0
95500	8.467238	0
95700	8.502572	0
95900	8.537981	0
96100	8.573462	0
96300	8.609018	0
96500	8.644647	0
96700	8.680349	0
96900	8.716125	1
97100	8.751975	0
97300	8.787898	0
97500	8.823895	0
97700	8.859965	0
97900	8.896109	0
98100	8.932327	0
98300	8.968618	0
98500	9.004982	0
98700	9.041421	20
98900	9.077933	0
99100	9.114518	0
99300	9.151177	0
99500	9.187909	0
99700	9.224716	0
99900	9.261595	0
100100	9.298548	0
100300	9.335575	0
100500	9.372676	0
100700	9.409850	0
100900	9.447097	0
101100	9.484418	0
101300	9.521813	0
101500	9.559281	1
101700	9.596823	0
101900	9.634439	0
102100	9.672128	0
102300	9.709890	0
102500	9.747726	0
102700	9.785636	0
102900	9.823619	0
103100	9.861676	0
103300	9.899807	0
103500	9.938011	0
103700	9.976288	0
103900	10.014639	12
104100	10.053064	0
104300	10.091563	0
104500	10.130134	0
104700	10.168780	0
104900	10.207499	0
105100	10.246292	0
105300	10.285158	0
105500	10.324097	0
105700	10.363111	0
105900	10.402198	0
106100	10.441358	0
106300	10.480592	0
106500	10.519900	0
106700	10.559281	0
106900	10.598736	0
107100	10.638264	0
107300	10.677866	0
107500	10.717542	0
107700	10.757291	0
107900	10.797113	0
108100	10.837010	0
108300	10.876979	0
108500	10.917023	1
108700	10.957140	1
108900	10.997330	31
109100	11.037594	8
109300	11.077932	2
109500	11.118343	0
109700	11.158828	0
109900	11.199386	0
110100	11.240018	1
110300	11.280724	0
110500	11.321503	0
110700	11.362356	0
110900	11.403282	0
111100	11.444282	1
111300	11.485355	0
111500	11.526502	0
111700	11.567723	0
111900	11.609017	1
112100	11.650385	1
112300	11.691826	0
112500	11.733341	0
112700	11.774929	2
112900	11.816591	1
113100	11.858327	1
113300	11.900136	0
113500	11.942019	2
113700	11.983975	41013
113900	12.026005	1631
114100	12.068108	2
114300	12.110285	4
114500	12.152536	0
114700	12.194860	3
114900	12.237258	2
115100	12.279729	1
115300	12.322274	1
115500	12.364892	0
115700	12.407584	1
115900	12.450350	2
116100	12.493189	2
116300	12.536102	0
116500	12.579088	1
116700	12.622148	1
116900	12.665282	3
117100	12.708489	1
117300	12.751769	4
117500	12.795123	3
117700	12.838551	8
117900	12.882053	4
118100	12.925628	1
118300	12.969276	13
118500	13.012998	129025
118700	13.056794	29
118900	13.100663	3
119100	13.144606	7
119300	13.188622	12
119500	13.232712	20
119700	13.276876	7
119900	13.321113	5
120100	13.365423	2
120300	13.409808	0
120500	13.454265	5
120700	13.498797	3
120900	13.543402	31
121100	13.588080	6
121300	13.632832	2
121500	13.677658	0
121700	13.722557	1
121900	13.767530	0
122100	13.812577	2
122300	13.857697	2
122500	13.902890	2
122700	13.948157	3
122900	13.993498	18323
123100	14.038912	44474
123300	14.084400	16
123500	14.129961	6
123700	14.175596	7
123900	14.221305	5
124100	14.267087	6
124300	14.312943	6
124500	14.358872	3
124700	14.404875	4
124900	14.450951	3
125100	14.497101	3
125300	14.543325	2
125500	14.589622	46
125700	14.635993	15
125900	14.682437	3
126100	14.728955	2
126300	14.775547	2
126500	14.822212	2
126700	14.868950	5
126900	14.915762	1
127100	14.962648	3
127300	15.009608	105806
127500	15.056640	1169
127700	15.103747	143
127900	15.150927	49
128100	15.198181	32
128300	15.245508	27
128500	15.292909	15
128700	15.340383	10
128900	15.387931	7
129100	15.435552	7
129300	15.483247	9
129500	15.531016	5
129700	15.578858	9
129900	15.626774	110
130100	15.674763	25
130300	15.722826	3
130500	15.770963	6
130700	15.819173	28
130900	15.867457	10
131100	15.915814	16
131300	15.964245	394
131500	16.012749	760981
131700	16.061327	74
131900	16.109979	15
132100	16.158704	12
132300	16.207502	16
132500	16.256375	7
132700	16.305320	13
132900	16.354340	12
133100	16.403433	17
133300	16.452599	17
133500	16.501839	10
133700	16.551153	10
133900	16.600540	8
134100	16.650001	10
134300	16.699536	19
134500	16.749144	8
134700	16.798825	8
134900	16.848580	29
135100	16.898409	6
135300	16.948311	19
135500	16.998287	693815
135700	17.048337	820
135900	17.098460	72
136100	17.148656	39
136300	17.198926	29
136500	17.249270	36
136700	17.299688	36
136900	17.350178	21
137100	17.400743	18
137300	17.451381	22
137500	17.502092	14
137700	17.552878	16
137900	17.603736	11
138100	17.654669	10
138300	17.705675	152
138500	17.756754	15
138700	17.807907	4
138900	17.859134	11
139100	17.910434	14
139300	17.961808	5
139500	18.013255	1685
139700	18.064776	4
139900	18.116371	3
140100	18.168039	5
140300	18.219780	5
140500	18.271595	6
140700	18.323484	8
140900	18.375447	5
141100	18.427483	4
141300	18.479592	8
141500	18.531775	7
141700	18.584032	4
141900	18.636362	2
142100	18.688766	4
142300	18.741243	3
142500	18.793794	2
142700	18.846419	3
142900	18.899117	3
143100	18.951888	4
143300	19.004734	48901
143500	19.057653	56
143700	19.110645	18
143900	19.163711	8
144100	19.216850	3
144300	19.270064	3
144500	19.323350	5
144700	19.376711	3
144900	19.430144	4
145100	19.483652	1
145300	19.537233	2
145500	19.590887	4
145700	19.644616	1
145900	19.698417	4
146100	19.752293	2
146300	19.806241	1
146500	19.860264	2
146700	19.914360	1
146900	19.968529	2
147100	20.022773	4
147300	20.077089	4
147500	20.131480	8
147700	20.185944	1
147900	20.240481	1
148100	20.295092	1
148300	20.349777	1
148500	20.404535	1
148700	20.459367	1
148900	20.514272	1
149100	20.569251	1
149300	20.624303	4
149500	20.679429	0
149700	20.734629	0
149900	20.789902	1
150100	20.845249	1
150300	20.900669	1
150500	20.956163	0
150700	21.011731	16
150900	21.067372	3
151100	21.123086	1
151300	21.178875	0
151500	21.234736	0
151700	21.290672	1
151900	21.346681	1
152100	21.402763	0
152300	21.458919	1
152500	21.515149	1
152700	21.571452	1
152900	21.627829	1
153100	21.684279	0
153300	21.740803	1
153500	21.797401	2
153700	21.854072	1
153900	21.910817	0
154100	21.967635	0
154300	22.024527	35
154500	22.081492	2
154700	22.138531	1
154900	22.195644	2
155100	22.252830	2
155300	22.310089	1
155500	22.367423	2
155700	22.424829	0
155900	22.482310	1
156100	22.539864	0
156300	22.597491	0
156500	22.655193	1
156700	22.712967	1
156900	22.770816	0
157100	22.828737	2
157300	22.886733	0
157500	22.944802	2
157700	23.002944	1379
157900	23.061161	28
158100	23.119450	0
158300	23.177814	1
158500	23.236251	3
158700	23.294761	0
158900	23.353345	1
159100	23.412003	1
159300	23.470734	0
159500	23.529539	1
159700	23.588417	2
159900	23.647369	2
160100	23.706394	0
160300	23.765493	0
160500	23.824666	3
160700	23.883912	2
160900	23.943232	238
161100	24.002625	121634
161300	24.062092	106
161500	24.121633	17
161700	24.181247	13
161900	24.240934	13
162100	24.300696	9
162300	24.360530	4
162500	24.420439	11
162700	24.480421	4
162900	24.540476	2
163100	24.600605	4
163300	24.660808	5
163500	24.721084	2
163700	24.781434	22
163900	24.841857	22
164100	24.902354	7
164300	24.962925	396
164500	25.023569	522903
164700	25.084287	326
164900	25.145078	115
165100	25.205943	56
165300	25.266881	31
165500	25.327893	28
165700	25.388978	19
165900	25.450138	24
166100	25.511370	13
166300	25.572677	13
166500	25.634056	8
166700	25.695510	6
166900	25.757037	6
167100	25.818637	15
167300	25.880312	9
167500	25.942059	26
167700	26.003880	319274
167900	26.065775	3375
168100	26.127744	582
168300	26.189786	240
168500	26.251901	116
168700	26.314091	74
168900	26.376353	48
169100	26.438690	32
169300	26.501099	24
169500	26.563583	16
169700	26.626140	21
169900	26.688771	14
170100	26.751475	8
170300	26.814252	14
170500	26.877104	3
170700	26.940029	10
170900	27.003027	50584
171100	27.066099	522
171300	27.129245	49
171500	27.192464	7
171700	27.255757	9
171900	27.319123	11
172100	27.382563	8
172300	27.446076	5
172500	27.509664	6
172700	27.573324	10
172900	27.637058	4
173100	27.700866	3
173300	27.764748	6
173500	27.828702	3
173700	27.892731	7
173900	27.956833	984
174100	28.021009	1297
174300	28.085258	7
174500	28.149581	7
174700	28.213977	4
174900	28.278447	3
175100	28.342991	2
175300	28.407608	5
175500	28.472298	5
175700	28.537063	4
175900	28.601900	1
176100	28.666812	1
176300	28.731797	0
176500	28.796855	1
176700	28.861987	0
176900	28.927193	101
177100	28.992472	7174
177300	29.057825	27
177500	29.123252	5
177700	29.188752	4
177900	29.254325	1
178100	29.319972	6
178300	29.385693	0
178500	29.451487	1
178700	29.517355	3
178900	29.583297	2
179100	29.649312	7
179300	29.715400	9
179500	29.781562	6
179700	29.847798	2
179900	29.914107	2
180100	29.980490	1138
180300	30.046947	41
180500	30.113477	1
180700	30.180080	9
180900	30.246757	4
181100	30.313508	8
181300	30.380333	0
181500	30.447230	2
181700	30.514202	5
181900	30.581247	4
182100	30.648366	5
182300	30.715558	5
182500	30.782824	5
182700	30.850163	2
182900	30.917576	3
183100	30.985062	1504
183300	31.052622	3477
183500	31.120256	5
183700	31.187963	3
183900	31.255744	1
184100	31.323598	4
184300	31.391526	3
184500	31.459528	4
184700	31.527603	2
184900	31.595751	1
185100	31.663974	2
185300	31.732269	3
185500	31.800639	4
185700	31.869082	3
185900	31.937598	563
186100	32.006188	35261
186300	32.074852	11
186500	32.143589	9
186700	32.212400	3
186900	32.281285	8
187100	32.350243	5
187300	32.419274	3
187500	32.488379	1
187700	32.557558	2
187900	32.626810	2
188100	32.696136	5
188300	32.765535	2
188500	32.835008	2
188700	32.904555	7
188900	32.974175	10493
189100	33.043869	163
189300	33.113636	5
189500	33.183477	7
189700	33.253391	3
189900	33.323379	9
190100	33.393441	8
190300	33.463576	5
190500	33.533785	1
190700	33.604067	1
190900	33.674423	8
191100	33.744852	3
191300	33.815355	6
191500	33.885932	1
191700	33.956582	221
191900	34.027306	568
192100	34.098103	5
192300	34.168974	1
192500	34.239919	2
192700	34.310937	1
192900	34.382028	1
193100	34.453193	2
193300	34.524432	8
193500	34.595745	7
193700	34.667130	2
193900	34.738590	215
194100	34.810123	22
194300	34.881730	165
194500	34.953410	4518199
194700	35.025164	4356
194900	35.096991	153
195100	35.168892	364
195300	35.240866	601
195500	35.312914	594
195700	35.385036	421
195900	35.457231	296
196100	35.529500	209
196300	35.601843	172
196500	35.674258	153
196700	35.746748	128
196900	35.819311	100
197100	35.891948	90
197300	35.964658	10871
197500	36.037442	13623
197700	36.110299	77
197900	36.183230	66
198100	36.256235	49
198300	36.329313	60
198500	36.402465	51
198700	36.475690	30
198900	36.548989	38
199100	36.622361	17
199300	36.695807	82
199500	36.769327	37
199700	36.842920	19
199900	36.916586	888
200100	36.990327	2233913
200300	37.064141	2057
200500	37.138028	1016
200700	37.211989	600
200900	37.286024	376
201100	37.360132	202
201300	37.434313	134
201500	37.508569	101
201700	37.582898	89
201900	37.657300	60
202100	37.731776	70
202300	37.806326	57
202500	37.880949	36
202700	37.955646	176
202900	38.030416	21212
203100	38.105260	55
203300	38.180177	40
203500	38.255168	34
203700	38.330233	27
203900	38.405371	22
204100	38.480583	15
204300	38.555868	31
204500	38.631227	15
204700	38.706660	12
204900	38.782166	15
205100	38.857745	13
205300	38.933398	391
205500	39.009125	14996
205700	39.084926	99
205900	39.160799	24
206100	39.236747	17
