# Binning: 200 channels
# Deadtime Correction: on
Channel	m/z	Intensity
100	0.000401	4
300	0.000681	27
500	0.001034	0
700	0.001461	0
900	0.001961	1
1100	0.002535	0
1300	0.003182	5
1500	0.003903	9
1700	0.004698	4
1900	0.005566	1
2100	0.006508	1
2300	0.007523	0
2500	0.008612	0
2700	0.009774	0
2900	0.011010	0
3100	0.012320	0
3300	0.013703	0
3500	0.015160	0
3700	0.016690	0
3900	0.018294	0
4100	0.019971	0
4300	0.021722	0
4500	0.023547	1
4700	0.025445	0
4900	0.027416	1
5100	0.029461	0
5300	0.031580	0
5500	0.033773	0
5700	0.036038	0
5900	0.038378	0
6100	0.040791	0
6300	0.043277	0
6500	0.045838	0
6700	0.048471	0
6900	0.051178	0
7100	0.053959	1
7300	0.056814	0
7500	0.059742	0
7700	0.062743	0
7900	0.065818	0
8100	0.068967	0
8300	0.072189	0
8500	0.075485	0
8700	0.078854	0
8900	0.082297	0
9100	0.085813	0
9300	0.089403	0
9500	0.093067	0
9700	0.096804	0
9900	0.100615	0
10100	0.104499	0
10300	0.108457	0
10500	0.112488	0
10700	0.116593	0
10900	0.120772	0
11100	0.125024	0
11300	0.129350	0
11500	0.133749	0
11700	0.138222	0
11900	0.142768	0
12100	0.147388	0
12300	0.152081	0
12500	0.156848	0
12700	0.161689	0
12900	0.166603	0
13100	0.171591	0
13300	0.176652	0
13500	0.181787	0
13700	0.186995	0
13900	0.192277	0
14100	0.197633	0
14300	0.203062	0
14500	0.208565	0
14700	0.214141	0
14900	0.219791	0
15100	0.225514	0
15300	0.231311	0
15500	0.237181	0
15700	0.243125	0
15900	0.249143	0
16100	0.255234	0
16300	0.261399	0
16500	0.267637	0
16700	0.273949	0
16900	0.280334	0
17100	0.286793	0
17300	0.293326	0
17500	0.299932	0
17700	0.306612	0
17900	0.313365	0
18100	0.320192	0
18300	0.327092	0
18500	0.334066	0
18700	0.341114	0
18900	0.348235	0
19100	0.355429	0
19300	0.362698	0
19500	0.370039	0
19700	0.377455	0
19900	0.384943	0
20100	0.392506	0
20300	0.400142	0
20500	0.407851	0
20700	0.415635	0
20900	0.423491	0
21100	0.431422	0
21300	0.439425	0
21500	0.447503	0
21700	0.455654	0
21900	0.463878	0
22100	0.472176	0
22300	0.480548	0
22500	0.488993	0
22700	0.497512	0
22900	0.506104	0
23100	0.514770	0
23300	0.523510	0
23500	0.532323	0
23700	0.541209	0
23900	0.550169	0
24100	0.559203	0
24300	0.568310	0
24500	0.577491	0
24700	0.586746	0
24900	0.596073	0
25100	0.605475	0
25300	0.614950	0
25500	0.624499	0
25700	0.634121	0
25900	0.643817	0
26100	0.653586	0
26300	0.663429	0
26500	0.673345	0
26700	0.683336	0
26900	0.693399	0
27100	0.703536	0
27300	0.713747	0
27500	0.724031	0
27700	0.734389	0
27900	0.744821	0
28100	0.755326	0
28300	0.765904	0
28500	0.776556	0
28700	0.787282	0
28900	0.798081	0
29100	0.808954	0
29300	0.819900	0
29500	0.830920	0
29700	0.842014	0
29900	0.853181	0
30100	0.864421	0
30300	0.875735	0
30500	0.887123	1
30700	0.898584	0
30900	0.910119	0
31100	0.921728	140
31300	0.933410	6
31500	0.945165	17
31700	0.956994	16
31900	0.968897	6
32100	0.980873	61
32300	0.992923	114
32500	1.005047	427712
32700	1.017244	3656
32900	1.029514	86
33100	1.041858	31
33300	1.054276	20
33500	1.066767	14
33700	1.079332	19
33900	1.091970	10
34100	1.104682	4
34300	1.117467	5
34500	1.130326	7
34700	1.143259	3
34900	1.156265	2
35100	1.169345	1
35300	1.182498	0
35500	1.195725	2
35700	1.209025	0
35900	1.222399	3
36100	1.235847	1
36300	1.249368	1
36500	1.262962	1
36700	1.276631	1
36900	1.290372	1
37100	1.304188	1
37300	1.318077	3
37500	1.332039	1
37700	1.346075	0
37900	1.360185	3
38100	1.374368	0
38300	1.388625	1
38500	1.402955	0
38700	1.417359	1
38900	1.431836	0
39100	1.446387	0
39300	1.461012	0
39500	1.475710	0
39700	1.490481	1
39900	1.505326	1
40100	1.520245	0
40300	1.535238	0
40500	1.550304	1
40700	1.565443	5
40900	1.580656	1
41100	1.595943	2
41300	1.611303	0
41500	1.626737	0
41700	1.642244	1
41900	1.657825	2
42100	1.673479	0
42300	1.689207	0
42500	1.705009	0
42700	1.720884	0
42900	1.736832	1
43100	1.752855	0
43300	1.768950	0
43500	1.785120	0
43700	1.801363	2
43900	1.817679	0
44100	1.834069	0
44300	1.850533	0
44500	1.867070	0
44700	1.883681	0
44900	1.900365	0
45100	1.917123	1
45300	1.933954	0
45500	1.950859	0
45700	1.967838	2
45900	1.984890	3
46100	2.002016	0
46300	2.019215	40
46500	2.036488	0
46700	2.053834	0
46900	2.071254	0
47100	2.088748	0
47300	2.106315	0
47500	2.123955	0
47700	2.141670	0
47900	2.159457	0
48100	2.177319	0
48300	2.195254	1
48500	2.213262	0
48700	2.231344	0
48900	2.249500	1
49100	2.267729	0
49300	2.286031	2
49500	2.304408	0
49700	2.322858	1
49900	2.341381	1
50100	2.359978	0
50300	2.378648	0
50500	2.397392	0
50700	2.416210	0
50900	2.435101	1
51100	2.454066	0
51300	2.473104	0
51500	2.492216	0
51700	2.511402	0
51900	2.530661	0
52100	2.549993	0
52300	2.569400	0
52500	2.588879	0
52700	2.608433	0
52900	2.628059	0
53100	2.647760	0
53300	2.667534	0
53500	2.687381	0
53700	2.707302	0
53900	2.727297	0
54100	2.747365	0
54300	2.767507	0
54500	2.787722	0
54700	2.808011	0
54900	2.828374	0
55100	2.848810	0
55300	2.869320	0
55500	2.889903	0
55700	2.910559	0
55900	2.931290	0
56100	2.952094	0
56300	2.972971	0
56500	2.993922	0
56700	3.014947	0
56900	3.036045	0
57100	3.057216	0
57300	3.078462	0
57500	3.099780	0
57700	3.121173	0
57900	3.142639	0
58100	3.164178	1
58300	3.185791	0
58500	3.207478	0
58700	3.229238	0
58900	3.251072	0
59100	3.272979	0
59300	3.294960	0
59500	3.317014	0
59700	3.339142	0
59900	3.361344	0
60100	3.383619	0
60300	3.405968	0
60500	3.428390	0
60700	3.450886	0
60900	3.473455	0
61100	3.496098	0
61300	3.518815	0
61500	3.541605	0
61700	3.564468	0
61900	3.587406	0
62100	3.610416	0
62300	3.633501	0
62500	3.656659	0
62700	3.679890	0
62900	3.703195	1
63100	3.726574	0
63300	3.750026	0
63500	3.773551	0
63700	3.797151	0
63900	3.820824	0
64100	3.844570	0
64300	3.868390	0
64500	3.892283	0
64700	3.916251	0
64900	3.940291	0
65100	3.964405	0
65300	3.988593	0
65500	4.012855	0
65700	4.037189	0
65900	4.061598	0
66100	4.086080	0
66300	4.110636	1
66500	4.135265	0
66700	4.159967	0
66900	4.184744	0
67100	4.209594	0
67300	4.234517	0
67500	4.259514	0
67700	4.284584	0
67900	4.309729	0
68100	4.334946	0
68300	4.360237	0
68500	4.385602	0
68700	4.411041	0
68900	4.436553	0
69100	4.462138	0
69300	4.487797	0
69500	4.513530	0
69700	4.539336	0
69900	4.565216	0
70100	4.591169	0
70300	4.617196	0
70500	4.643296	0
70700	4.669470	0
70900	4.695718	0
71100	4.722039	0
71300	4.748434	0
71500	4.774902	0
71700	4.801444	0
71900	4.828059	0
72100	4.854748	0
72300	4.881510	0
72500	4.908346	0
72700	4.935256	0
72900	4.962239	0
73100	4.989296	0
73300	5.016426	0
73500	5.043630	0
73700	5.070908	0
73900	5.098259	0
74100	5.125683	0
74300	5.153181	0
74500	5.180753	0
74700	5.208398	0
74900	5.236117	0
75100	5.263910	0
75300	5.291775	0
75500	5.319715	0
75700	5.347728	1
75900	5.375815	0
76100	5.403975	1
76300	5.432209	0
76500	5.460516	0
76700	5.488897	0
76900	5.517351	0
77100	5.545879	0
77300	5.574481	0
77500	5.603156	0
77700	5.631905	0
77900	5.660727	0
78100	5.689623	0
78300	5.718592	0
78500	5.747635	0
78700	5.776752	0
78900	5.805942	0
79100	5.835206	0
79300	5.864543	0
79500	5.893954	0
79700	5.923438	0
79900	5.952996	0
80100	5.982627	0
80300	6.012332	1
80500	6.042111	0
80700	6.071963	0
80900	6.101889	0
81100	6.131888	0
81300	6.161961	0
81500	6.192107	0
81700	6.222327	0
81900	6.252621	0
82100	6.282988	0
82300	6.313429	0
82500	6.343943	0
82700	6.374531	0
82900	6.405192	0
83100	6.435927	0
83300	6.466736	0
83500	6.497618	0
83700	6.528573	0
83900	6.559602	0
84100	6.590705	0
84300	6.621881	0
84500	6.653131	1
84700	6.684455	0
84900	6.715852	0
85100	6.747322	1
85300	6.778866	0
85500	6.810484	0
85700	6.842175	0
85900	6.873940	0
86100	6.905779	0
86300	6.937690	0
86500	6.969676	0
86700	7.001735	9
86900	7.033868	9
87100	7.066074	0
87300	7.098354	0
87500	7.130707	0
87700	7.163134	0
87900	7.195634	0
88100	7.228208	0
88300	7.260856	0
88500	7.293577	0
88700	7.326372	0
88900	7.359240	0
89100	7.392182	0
89300	7.425197	0
89500	7.458286	0
89700	7.491449	0
89900	7.524685	1
90100	7.557994	0
90300	7.591378	0
90500	7.624834	0
90700	7.658365	0
90900	7.691969	0
91100	7.725646	0
91300	7.759397	0
91500	7.793222	0
91700	7.827120	0
91900	7.861092	0
92100	7.895137	0
92300	7.929256	0
92500	7.963448	0
92700	7.997714	0
92900	8.032054	10
93100	8.066467	0
93300	8.100953	0
93500	8.135514	0
93700	8.170147	0
93900	8.204855	0
94100	8.239636	0
94300	8.274490	0
94500	8.309418	0
94700	8.344420	0
94900	8.379495	0
95100	8.414644	0
95300	8.449866	0
95500	8.485162	0
95700	8.520531	0
95900	8.555974	0
96100	8.591491	0
96300	8.627081	0
96500	8.662744	0
96700	8.698482	0
96900	8.734293	0
97100	8.770177	0
97300	8.806135	0
97500	8.842166	0
97700	8.878271	0
97900	8.914450	0
98100	8.950702	0
98300	8.987028	0
98500	9.023427	7
98700	9.059900	0
98900	9.096447	0
99100	9.133067	0
99300	9.169760	0
99500	9.206527	0
99700	9.243368	0
99900	9.280282	0
100100	9.317270	0
100300	9.354331	0
100500	9.391466	0
100700	9.428675	0
100900	9.465957	0
101100	9.503313	0
101300	9.540742	0
101500	9.578244	0
101700	9.615821	0
101900	9.653471	0
102100	9.691194	0
102300	9.728991	0
102500	9.766862	0
102700	9.804806	0
102900	9.842824	0
103100	9.880915	0
103300	9.919080	0
103500	9.957318	0
103700	9.995630	0
103900	10.034016	0
104100	10.072475	0
104300	10.111007	0
104500	10.149614	0
104700	10.188293	0
104900	10.227047	0
105100	10.265874	0
105300	10.304774	0
105500	10.343748	0
105700	10.382796	0
105900	10.421917	0
106100	10.461112	0
106300	10.500380	0
106500	10.539722	0
106700	10.579137	0
106900	10.618626	0
107100	10.658189	0
107300	10.697825	0
107500	10.737534	0
107700	10.777318	0
107900	10.817174	0
108100	10.857105	0
108300	10.897109	0
108500	10.937186	0
108700	10.977337	0
108900	11.017562	4
109100	11.057860	0
109300	11.098232	0
109500	11.138677	0
109700	11.179196	0
109900	11.219788	0
110100	11.260454	0
110300	11.301194	0
110500	11.342007	0
110700	11.382894	0
110900	11.423854	0
111100	11.464888	0
111300	11.505995	0
111500	11.547176	0
111700	11.588430	0
111900	11.629759	0
112100	11.671160	0
112300	11.712635	1
112500	11.754184	0
112700	11.795806	1
112900	11.837502	0
113100	11.879272	1
113300	11.921115	1
113500	11.963031	13
113700	12.005021	10533
113900	12.047085	8
114100	12.089222	0
114300	12.131433	1
114500	12.173718	0
114700	12.216076	0
114900	12.258507	1
115100	12.301012	0
115300	12.343591	2
115500	12.386243	0
115700	12.428969	0
115900	12.471768	0
116100	12.514641	0
116300	12.557587	0
116500	12.600607	1
116700	12.643701	1
116900	12.686868	7
117100	12.730109	0
117300	12.773423	3
117500	12.816811	2
117700	12.860272	0
117900	12.903807	0
118100	12.947416	10
118300	12.991098	26837
118500	13.034854	1805
118700	13.078683	3
118900	13.122586	2
119100	13.166562	1
119300	13.210612	0
119500	13.254735	2
119700	13.298932	1
119900	13.343203	1
120100	13.387547	1
120300	13.431965	1
120500	13.476456	0
120700	13.521021	3
120900	13.565659	2
121100	13.610371	1
121300	13.655157	0
121500	13.700016	3
121700	13.744949	0
121900	13.789955	4
122100	13.835035	1
122300	13.880188	1
122500	13.925415	5
122700	13.970715	4
122900	14.016090	9214
123100	14.061537	14
123300	14.107058	3
123500	14.152653	0
123700	14.198321	3
123900	14.244063	0
124100	14.289879	3
124300	14.335768	0
124500	14.381730	0
124700	14.427766	1
124900	14.473876	2
125100	14.520059	2
125300	14.566316	4
125500	14.612646	12
125700	14.659050	2
125900	14.705528	6
126100	14.752079	1
126300	14.798704	3
126500	14.845402	0
126700	14.892174	1
126900	14.939019	5
127100	14.985938	45
127300	15.032930	12541
127500	15.079996	35
127700	15.127136	11
127900	15.174349	6
128100	15.221636	2
128300	15.268996	2
128500	15.316430	5
128700	15.363937	1
128900	15.411518	3
129100	15.459173	1
129300	15.506901	1
129500	15.554702	0
129700	15.602577	2
129900	15.650526	52
130100	15.698549	1
130300	15.746644	4
130500	15.794814	3
130700	15.843057	8
130900	15.891374	17
131100	15.939764	37
131300	15.988227	101775
131500	16.036765	690
131700	16.085376	5
131900	16.134060	4
132100	16.182818	0
132300	16.231649	5
132500	16.280555	6
132700	16.329533	2
132900	16.378585	5
133100	16.427711	3
133300	16.476911	2
133500	16.526183	3
133700	16.575530	3
133900	16.624950	24
134100	16.674444	8
134300	16.724011	4
134500	16.773651	2
134700	16.823366	2
134900	16.873154	3
135100	16.923015	30
135300	16.972950	959
135500	17.022959	101734
135700	17.073041	51
135900	17.123196	26
136100	17.173426	8
136300	17.223728	5
136500	17.274105	3
136700	17.324555	3
136900	17.375078	3
137100	17.425675	4
137300	17.476346	4
137500	17.527090	2
137700	17.577908	2
137900	17.628799	2
138100	17.679764	13
138300	17.730802	8
138500	17.781914	1
138700	17.833100	1
138900	17.884359	3
139100	17.935692	1
139300	17.987098	240
139500	18.038578	12
139700	18.090131	0
139900	18.141758	1
140100	18.193459	0
140300	18.245233	0
140500	18.297080	3
140700	18.349002	1
140900	18.400996	1
141100	18.453065	0
141300	18.505206	1
141500	18.557422	1
141700	18.609711	2
141900	18.662074	0
142100	18.714510	0
142300	18.767019	1
142500	18.819603	1
142700	18.872259	2
142900	18.924990	4
143100	18.977794	3822
143300	19.030671	624
143500	19.083622	2
143700	19.136647	0
143900	19.189745	1
144100	19.242917	0
144300	19.296162	0
144500	19.349481	1
144700	19.402874	0
144900	19.456340	0
145100	19.509879	1
145300	19.563493	0
145500	19.617179	0
145700	19.670940	0
145900	19.724773	0
146100	19.778681	1
146300	19.832662	1
146500	19.886716	1
146700	19.940844	1
146900	19.995046	2
147100	20.049321	0
147300	20.103670	1
147500	20.158092	0
147700	20.212588	0
147900	20.267158	0
148100	20.321801	1
148300	20.376517	1
148500	20.431308	1
148700	20.486171	1
148900	20.541109	0
149100	20.596120	0
149300	20.651204	0
149500	20.706362	0
149700	20.761594	0
149900	20.816899	0
150100	20.872277	0
150300	20.927730	0
150500	20.983255	0
150700	21.038855	1
150900	21.094528	0
151100	21.150274	0
151300	21.206094	0
151500	21.261988	0
151700	21.317955	0
151900	21.373996	0
152100	21.430110	0
152300	21.486298	1
152500	21.542559	0
152700	21.598894	0
152900	21.655303	0
153100	21.711785	0
153300	21.768341	0
153500	21.824970	0
153700	21.881673	0
153900	21.938449	0
154100	21.995299	2
154300	22.052223	2
154500	22.109220	0
154700	22.166290	0
154900	22.223435	0
155100	22.280652	0
155300	22.337944	1
155500	22.395309	0
155700	22.452747	0
155900	22.510259	0
156100	22.567845	0
156300	22.625504	0
156500	22.683237	0
156700	22.741043	0
156900	22.798923	0
157100	22.856876	1
157300	22.914903	0
157500	22.973003	206
157700	23.031178	48
157900	23.089425	0
158100	23.147746	1
158300	23.206141	0
158500	23.264610	0
158700	23.323151	0
158900	23.381767	0
159100	23.440456	1
159300	23.499219	1
159500	23.558055	6
159700	23.616964	0
159900	23.675948	0
160100	23.735005	0
160300	23.794135	2
160500	23.853339	2
160700	23.912617	10
160900	23.971968	21504
161100	24.031392	12780
161300	24.090891	19
161500	24.150462	7
161700	24.210108	1
161900	24.269827	5
162100	24.329619	2
162300	24.389485	4
162500	24.449425	1
162700	24.509438	2
162900	24.569525	33
163100	24.629685	2
163300	24.689919	3
163500	24.750226	5
163700	24.810607	0
163900	24.871062	9
164100	24.931590	37
164300	24.992192	131945
164500	25.052867	1526
164700	25.113616	83
164900	25.174438	30
165100	25.235334	15
165300	25.296303	8
165500	25.357347	10
165700	25.418463	7
165900	25.479653	2
166100	25.540917	14
166300	25.602254	9
166500	25.663665	2
166700	25.725150	5
166900	25.786708	2
167100	25.848339	3
167300	25.910044	18
167500	25.971823	26636
167700	26.033675	52003
167900	26.095601	433
168100	26.157601	134
168300	26.219674	65
168500	26.281820	35
168700	26.344040	16
168900	26.406334	15
169100	26.468701	14
169300	26.531142	6
169500	26.593656	13
169700	26.656244	5
169900	26.718905	3
170100	26.781640	3
170300	26.844449	3
170500	26.907331	4
170700	26.970287	588
170900	27.033316	7511
171100	27.096419	25
171300	27.159595	8
171500	27.222845	4
171700	27.286169	0
171900	27.349566	1
172100	27.413037	3
172300	27.476581	1
172500	27.540199	2
172700	27.603890	2
172900	27.667655	0
173100	27.731493	1
173300	27.795405	2
173500	27.859391	0
173700	27.923450	4
173900	27.987583	310
174100	28.051789	132
174300	28.116069	0
174500	28.180423	1
174700	28.244850	1
174900	28.309350	2
175100	28.373924	1
175300	28.438572	1
175500	28.503293	1
175700	28.568088	0
175900	28.632956	0
176100	28.697898	0
176300	28.762914	0
176500	28.828003	2
176700	28.893165	1
176900	28.958401	242
177100	29.023711	899
177300	29.089095	0
177500	29.154551	0
177700	29.220082	2
177900	29.285686	0
178100	29.351363	1
178300	29.417115	0
178500	29.482939	0
178700	29.548837	0
178900	29.614809	0
179100	29.680855	0
179300	29.746974	0
179500	29.813166	0
179700	29.879432	2
179900	29.945772	5
180100	30.012185	179
180300	30.078672	0
180500	30.145232	0
180700	30.211866	1
180900	30.278573	1
181100	30.345354	1
181300	30.412209	2
181500	30.479137	0
181700	30.546139	3
181900	30.613214	2
182100	30.680363	0
182300	30.747585	2
182500	30.814881	0
182700	30.882251	1
182900	30.949694	13
183100	31.017211	621
183300	31.084801	3
183500	31.152464	0
183700	31.220202	2
183900	31.288013	0
184100	31.355897	1
184300	31.423855	0
184500	31.491887	5
184700	31.559992	0
184900	31.628171	0
185100	31.696423	0
185300	31.764749	1
185500	31.833148	4
185700	31.901621	1
185900	31.970168	4711
186100	32.038788	69
186300	32.107481	2
186500	32.176249	1
186700	32.245089	0
186900	32.314004	1
187100	32.382992	0
187300	32.452053	1
187500	32.521188	2
187700	32.590397	0
187900	32.659679	1
188100	32.729035	3
188300	32.798464	0
188500	32.867967	0
188700	32.937543	21
188900	33.007193	1546
189100	33.076917	3
189300	33.146714	1
189500	33.216585	4
189700	33.286529	14
189900	33.356547	4
190100	33.426638	1
190300	33.496803	2
190500	33.567042	0
190700	33.637354	1
190900	33.707739	1
191100	33.778198	0
191300	33.848731	0
191500	33.919337	0
191700	33.990017	101
191900	34.060771	5
192100	34.131598	0
192300	34.202498	0
192500	34.273472	5
192700	34.344520	2
192900	34.415641	76
193100	34.486836	270
193300	34.558105	22
193500	34.629447	35
193700	34.700862	10
193900	34.772351	11
194100	34.843914	224
194300	34.915550	1244
194500	34.987260	935671
194700	35.059043	4201
194900	35.130900	1208
195100	35.202830	528
195300	35.274834	283
195500	35.346912	152
195700	35.419063	88
195900	35.491288	69
196100	35.563586	44
196300	35.635958	34
196500	35.708403	22
196700	35.780922	24
196900	35.853515	20
197100	35.926181	16
197300	35.998921	8819
197500	36.071734	29
197700	36.144621	13
197900	36.217581	8
198100	36.290615	9
198300	36.363722	9
198500	36.436903	91
198700	36.510158	11
198900	36.583486	19
199100	36.656888	6
199300	36.730363	10
199500	36.803912	46
199700	36.877534	107
199900	36.951230	297843
200100	37.025000	14227
200300	37.098843	810
200500	37.172760	249
200700	37.246750	111
200900	37.320814	53
201100	37.394951	39
201300	37.469162	40
201500	37.543446	25
201700	37.617804	21
201900	37.692236	9
202100	37.766741	9
202300	37.841320	9
202500	37.915972	10
202700	37.990698	4934
202900	38.065498	171
203100	38.140371	9
203300	38.215317	6
203500	38.290337	4
203700	38.365431	3
203900	38.440598	4
204100	38.515839	7
204300	38.591153	4
204500	38.666541	0
204700	38.742003	4
204900	38.817538	4
205100	38.893146	7
205300	38.968829	322
205500	39.044584	2593
205700	39.120414	12
205900	39.196317	5
206100	39.272293	2
206300	39.348343	5
206500	39.424467	0
206700	39.500664	5
206900	39.576934	11
207100	39.653279	2
207300	39.729696	3
207500	39.806188	2
