# Binning: 200 channels
# Deadtime Correction: on
Channel	m/z	Intensity
100	0.000409	4
300	0.000692	7
500	0.001048	0
700	0.001478	0
900	0.001982	0
1100	0.002559	0
1300	0.003210	7
1500	0.003935	8
1700	0.004733	5
1900	0.005606	1
2100	0.006551	1
2300	0.007571	0
2500	0.008664	0
2700	0.009831	0
2900	0.011072	0
3100	0.012386	0
3300	0.013775	0
3500	0.015236	0
3700	0.016772	0
3900	0.018381	0
4100	0.020064	0
4300	0.021821	0
4500	0.023651	0
4700	0.025555	0
4900	0.027533	0
5100	0.029585	1
5300	0.031710	0
5500	0.033909	1
5700	0.036181	0
5900	0.038528	0
6100	0.040948	0
6300	0.043441	0
6500	0.046009	0
6700	0.048650	0
6900	0.051365	0
7100	0.054153	0
7300	0.057016	1
7500	0.059952	0
7700	0.062961	2
7900	0.066045	0
8100	0.069202	0
8300	0.072433	0
8500	0.075737	0
8700	0.079116	0
8900	0.082567	0
9100	0.086093	0
9300	0.089692	1
9500	0.093366	0
9700	0.097112	0
9900	0.100933	0
10100	0.104827	0
10300	0.108795	0
10500	0.112836	0
10700	0.116952	0
10900	0.121141	0
11100	0.125404	1
11300	0.129740	0
11500	0.134150	0
11700	0.138634	0
11900	0.143191	0
12100	0.147823	0
12300	0.152528	0
12500	0.157306	0
12700	0.162159	0
12900	0.167085	0
13100	0.172085	0
13300	0.177158	0
13500	0.182305	1
13700	0.187526	0
13900	0.192821	0
14100	0.198189	0
14300	0.203631	0
14500	0.209147	1
14700	0.214737	0
14900	0.220400	0
15100	0.226137	0
15300	0.231947	0
15500	0.237831	0
15700	0.243789	0
15900	0.249821	0
16100	0.255927	0
16300	0.262106	0
16500	0.268359	0
16700	0.274685	0
16900	0.281085	0
17100	0.287559	0
17300	0.294107	0
17500	0.300728	0
17700	0.307423	0
17900	0.314192	0
18100	0.321035	0
18300	0.327951	0
18500	0.334941	0
18700	0.342004	0
18900	0.349142	0
19100	0.356353	0
19300	0.363637	0
19500	0.370996	0
19700	0.378428	0
19900	0.385934	0
20100	0.393513	0
20300	0.401167	1
20500	0.408894	0
20700	0.416694	0
20900	0.424569	0
21100	0.432517	0
21300	0.440539	0
21500	0.448634	0
21700	0.456803	0
21900	0.465046	0
22100	0.473363	0
22300	0.481753	0
22500	0.490217	0
22700	0.498755	0
22900	0.507367	0
23100	0.516052	0
23300	0.524811	0
23500	0.533643	0
23700	0.542550	0
23900	0.551530	0
24100	0.560583	0
24300	0.569711	0
24500	0.578912	0
24700	0.588187	0
24900	0.597535	0
25100	0.606957	0
25300	0.616453	0
25500	0.626023	0
25700	0.635666	0
25900	0.645383	0
26100	0.655174	0
26300	0.665039	0
26500	0.674977	0
26700	0.684989	0
26900	0.695075	0
27100	0.705234	0
27300	0.715467	0
27500	0.725774	0
27700	0.736154	0
27900	0.746608	0
28100	0.757136	0
28300	0.767738	0
28500	0.778413	0
28700	0.789162	0
28900	0.799985	0
29100	0.810881	0
29300	0.821851	0
29500	0.832895	0
29700	0.844012	0
29900	0.855204	1
30100	0.866469	0
30300	0.877807	0
30500	0.889220	0
30700	0.900706	0
30900	0.912265	0
31100	0.923899	27
31300	0.935606	0
31500	0.947387	1
31700	0.959242	2
31900	0.971170	2
32100	0.983172	21
32300	0.995248	29
32500	1.007397	108531
32700	1.019620	191
32900	1.031917	13
33100	1.044288	2
33300	1.056732	2
33500	1.069250	3
33700	1.081842	2
33900	1.094507	0
34100	1.107246	0
34300	1.120059	1
34500	1.132945	3
34700	1.145906	1
34900	1.158939	1
35100	1.172047	0
35300	1.185228	0
35500	1.198483	0
35700	1.211812	0
35900	1.225215	0
36100	1.238691	0
36300	1.252241	0
36500	1.265864	0
36700	1.279562	1
36900	1.293333	0
37100	1.307177	0
37300	1.321096	0
37500	1.335088	1
37700	1.349154	0
37900	1.363293	1
38100	1.377506	0
38300	1.391793	0
38500	1.406154	0
38700	1.420588	0
38900	1.435096	0
39100	1.449678	0
39300	1.464334	0
39500	1.479063	0
39700	1.493866	1
39900	1.508742	0
40100	1.523693	0
40300	1.538717	0
40500	1.553814	0
40700	1.568986	0
40900	1.584231	0
41100	1.599550	0
41300	1.614942	0
41500	1.630409	0
41700	1.645949	1
41900	1.661562	0
42100	1.677250	0
42300	1.693011	0
42500	1.708846	0
42700	1.724754	0
42900	1.740736	0
43100	1.756792	0
43300	1.772922	0
43500	1.789125	0
43700	1.805402	0
43900	1.821753	0
44100	1.838178	0
44300	1.854676	0
44500	1.871248	0
44700	1.887893	0
44900	1.904613	0
45100	1.921406	0
45300	1.938272	0
45500	1.955213	0
45700	1.972227	0
45900	1.989315	0
46100	2.006476	4
46300	2.023711	3
46500	2.041020	0
46700	2.058403	0
46900	2.075859	0
47100	2.093390	0
47300	2.110993	0
47500	2.128671	0
47700	2.146422	0
47900	2.164247	0
48100	2.182146	0
48300	2.200118	0
48500	2.218164	1
48700	2.236284	0
48900	2.254477	0
49100	2.272744	0
49300	2.291085	0
49500	2.309500	0
49700	2.327988	0
49900	2.346550	0
50100	2.365186	0
50300	2.383895	0
50500	2.402678	0
50700	2.421535	0
50900	2.440465	0
51100	2.459470	0
51300	2.478548	0
51500	2.497699	0
51700	2.516925	0
51900	2.536224	0
52100	2.555596	0
52300	2.575043	0
52500	2.594563	0
52700	2.614157	0
52900	2.633825	0
53100	2.653566	0
53300	2.673381	0
53500	2.693270	0
53700	2.713232	0
53900	2.733268	0
54100	2.753378	0
54300	2.773562	0
54500	2.793819	0
54700	2.814150	0
54900	2.834554	0
55100	2.855033	0
55300	2.875585	0
55500	2.896211	0
55700	2.916910	0
55900	2.937683	0
56100	2.958530	0
56300	2.979451	0
56500	3.000445	0
56700	3.021513	0
56900	3.042655	0
57100	3.063871	0
57300	3.085160	0
57500	3.106523	0
57700	3.127959	0
57900	3.149469	0
58100	3.171053	0
58300	3.192711	0
58500	3.214443	0
58700	3.236248	0
58900	3.258127	0
59100	3.280079	0
59300	3.302105	0
59500	3.324205	0
59700	3.346379	0
59900	3.368626	0
60100	3.390947	0
60300	3.413342	0
60500	3.435811	0
60700	3.458353	0
60900	3.480969	0
61100	3.503658	0
61300	3.526422	0
61500	3.549259	0
61700	3.572169	0
61900	3.595154	0
62100	3.618212	0
62300	3.641344	0
62500	3.664549	0
62700	3.687829	0
62900	3.711182	0
63100	3.734608	0
63300	3.758109	0
63500	3.781683	0
63700	3.805331	0
63900	3.829052	0
64100	3.852847	0
64300	3.876716	0
64500	3.900659	0
64700	3.924675	0
64900	3.948765	0
65100	3.972929	0
65300	3.997166	0
65500	4.021478	0
65700	4.045863	0
65900	4.070321	0
66100	4.094853	0
66300	4.119459	0
66500	4.144139	0
66700	4.168893	0
66900	4.193720	0
67100	4.218620	0
67300	4.243595	0
67500	4.268643	0
67700	4.293765	0
67900	4.318961	0
68100	4.344230	0
68300	4.369573	0
68500	4.394990	0
68700	4.420481	0
68900	4.446045	0
69100	4.471683	0
69300	4.497394	0
69500	4.523180	0
69700	4.549039	0
69900	4.574971	0
70100	4.600978	0
70300	4.627058	0
70500	4.653212	0
70700	4.679439	0
70900	4.705741	0
71100	4.732116	0
71300	4.758564	0
71500	4.785087	0
71700	4.811683	0
71900	4.838353	0
72100	4.865096	0
72300	4.891913	0
72500	4.918804	0
72700	4.945769	0
72900	4.972807	0
73100	4.999919	1
73300	5.027105	0
73500	5.054365	0
73700	5.081698	0
73900	5.109105	0
74100	5.136585	0
74300	5.164140	0
74500	5.191768	0
74700	5.219469	0
74900	5.247245	0
75100	5.275094	0
75300	5.303017	0
75500	5.331013	0
75700	5.359084	0
75900	5.387228	0
76100	5.415445	0
76300	5.443737	0
76500	5.472102	0
76700	5.500540	0
76900	5.529053	0
77100	5.557639	0
77300	5.586299	0
77500	5.615033	0
77700	5.643840	0
77900	5.672721	0
78100	5.701676	0
78300	5.730704	0
78500	5.759806	0
78700	5.788982	0
78900	5.818232	0
79100	5.847555	0
79300	5.876952	0
79500	5.906423	0
79700	5.935967	0
79900	5.965585	0
80100	5.995277	0
80300	6.025043	0
80500	6.054882	0
80700	6.084795	0
80900	6.114782	0
81100	6.144842	0
81300	6.174976	0
81500	6.205184	0
81700	6.235465	0
81900	6.265820	0
82100	6.296249	0
82300	6.326752	0
82500	6.357328	0
82700	6.387978	0
82900	6.418702	0
83100	6.449499	0
83300	6.480371	0
83500	6.511315	0
83700	6.542334	0
83900	6.573426	0
84100	6.604592	0
84300	6.635832	0
84500	6.667145	0
84700	6.698532	0
84900	6.729993	0
85100	6.761528	0
85300	6.793136	0
85500	6.824818	0
85700	6.856574	0
85900	6.888403	0
86100	6.920306	0
86300	6.952283	1
86500	6.984333	0
86700	7.016457	0
86900	7.048655	0
87100	7.080927	0
87300	7.113272	0
87500	7.145691	0
87700	7.178184	0
87900	7.210750	0
88100	7.243390	0
88300	7.276104	0
88500	7.308892	0
88700	7.341753	0
88900	7.374688	0
89100	7.407697	0
89300	7.440779	0
89500	7.473935	0
89700	7.507165	0
89900	7.540468	0
90100	7.573845	0
90300	7.607296	0
90500	7.640821	0
90700	7.674419	0
90900	7.708091	0
91100	7.741837	0
91300	7.775656	0
91500	7.809550	0
91700	7.843517	0
91900	7.877557	0
92100	7.911671	0
92300	7.945859	0
92500	7.980121	0
92700	8.014456	0
92900	8.048866	0
93100	8.083348	0
93300	8.117905	0
93500	8.152535	0
93700	8.187239	0
93900	8.222017	0
94100	8.256868	0
94300	8.291793	0
94500	8.326792	0
94700	8.361864	0
94900	8.397010	0
95100	8.432230	0
95300	8.467524	0
95500	8.502891	0
95700	8.538332	0
95900	8.573847	0
96100	8.609435	0
96300	8.645098	0
96500	8.680833	0
96700	8.716643	0
96900	8.752526	0
97100	8.788483	0
97300	8.824514	0
97500	8.860618	0
97700	8.896796	0
97900	8.933048	0
98100	8.969374	0
98300	9.005773	0
98500	9.042246	0
98700	9.078792	0
98900	9.115413	0
99100	9.152107	0
99300	9.188874	0
99500	9.225716	0
99700	9.262631	0
99900	9.299620	1
100100	9.336682	0
100300	9.373819	0
100500	9.411029	0
100700	9.448312	0
100900	9.485670	0
101100	9.523101	0
101300	9.560606	0
101500	9.598184	0
101700	9.635837	0
101900	9.673562	0
102100	9.711362	0
102300	9.749235	0
102500	9.787183	0
102700	9.825203	0
102900	9.863298	0
103100	9.901466	0
103300	9.939708	0
103500	9.978023	0
103700	10.016413	0
103900	10.054876	0
104100	10.093413	0
104300	10.132023	0
104500	10.170707	0
104700	10.209465	0
104900	10.248297	0
105100	10.287202	0
105300	10.326181	0
105500	10.365233	0
105700	10.404360	0
105900	10.443560	0
106100	10.482834	0
106300	10.522181	0
106500	10.561602	0
106700	10.601097	0
106900	10.640666	2
107100	10.680308	0
107300	10.720024	0
107500	10.759814	0
107700	10.799678	0
107900	10.839615	0
108100	10.879626	0
108300	10.919710	0
108500	10.959869	0
108700	11.000101	0
108900	11.040406	0
109100	11.080786	0
109300	11.121239	0
109500	11.161766	0
109700	11.202366	0
109900	11.243040	0
110100	11.283788	0
110300	11.324610	0
110500	11.365505	0
110700	11.406474	0
110900	11.447517	0
111100	11.488634	0
111300	11.529824	0
111500	11.571088	0
111700	11.612425	0
111900	11.653837	0
112100	11.695322	1
112300	11.736880	0
112500	11.778513	0
112700	11.820219	0
112900	11.861999	0
113100	11.903852	1
113300	11.945780	5
113500	11.987781	17183
113700	12.029855	201
113900	12.072004	3
114100	12.114226	1
114300	12.156522	0
114500	12.198891	1
114700	12.241334	0
114900	12.283851	1
115100	12.326442	0
115300	12.369106	2
115500	12.411844	1
115700	12.454656	1
115900	12.497542	0
116100	12.540501	0
116300	12.583534	0
116500	12.626640	1
116700	12.669821	0
116900	12.713075	1
117100	12.756402	1
117300	12.799804	0
117500	12.843279	0
117700	12.886828	0
117900	12.930450	1
118100	12.974147	22
118300	13.017917	15760
118500	13.061760	7
118700	13.105678	1
118900	13.149669	1
119100	13.193733	0
119300	13.237872	0
119500	13.282084	1
119700	13.326370	1
119900	13.370730	1
120100	13.415163	0
120300	13.459670	0
120500	13.504251	1
120700	13.548905	7
120900	13.593633	1
121100	13.638435	0
121300	13.683311	2
121500	13.728260	1
121700	13.773283	1
121900	13.818380	0
122100	13.863550	0
122300	13.908794	1
122500	13.954112	0
122700	13.999504	1313
122900	14.044969	44
123100	14.090508	0
123300	14.136120	1
123500	14.181807	1
123700	14.227567	0
123900	14.273401	0
124100	14.319308	0
124300	14.365289	0
124500	14.411344	0
124700	14.457473	1
124900	14.503675	0
125100	14.549951	0
125300	14.596301	1
125500	14.642724	0
125700	14.689221	0
125900	14.735792	1
126100	14.782437	0
126300	14.829155	0
126500	14.875947	0
126700	14.922813	1
126900	14.969752	0
127100	15.016765	1000
127300	15.063852	5
127500	15.111013	1
127700	15.158247	1
127900	15.205555	0
128100	15.252936	0
128300	15.300392	1
128500	15.347921	0
128700	15.395523	0
128900	15.443200	0
129100	15.490950	1
129300	15.538774	0
129500	15.586672	0
129700	15.634643	11
129900	15.682688	1
130100	15.730806	1
130300	15.778999	1
130500	15.827265	3
130700	15.875605	0
130900	15.924018	6
131100	15.972506	22208
131300	16.021067	9733
131500	16.069701	3
131700	16.118410	0
131900	16.167192	1
132100	16.216047	0
132300	16.264977	0
132500	16.313980	0
132700	16.363057	0
132900	16.412208	0
133100	16.461432	0
133300	16.510730	0
133500	16.560102	0
133700	16.609547	0
133900	16.659066	3
134100	16.708659	0
134300	16.758326	0
134500	16.808066	0
134700	16.857880	1
134900	16.907768	5
135100	16.957729	13
135300	17.007764	16783
135500	17.057873	16
135700	17.108055	0
135900	17.158312	1
136100	17.208642	0
136300	17.259045	0
136500	17.309523	1
136700	17.360074	0
136900	17.410698	1
137100	17.461397	0
137300	17.512169	0
137500	17.563015	0
137700	17.613935	0
137900	17.664928	0
138100	17.715995	3
138300	17.767136	0
138500	17.818350	0
138700	17.869638	0
138900	17.921000	0
139100	17.972435	16
139300	18.023945	55
139500	18.075528	0
139700	18.127184	0
139900	18.178915	0
140100	18.230719	1
140300	18.282597	0
140500	18.334548	0
140700	18.386573	0
140900	18.438672	0
141100	18.490845	0
141300	18.543091	0
141500	18.595411	1
141700	18.647805	1
141900	18.700272	0
142100	18.752814	0
142300	18.805428	2
142500	18.858117	0
142700	18.910879	0
142900	18.963715	11
143100	19.016625	2268
143300	19.069608	3
143500	19.122665	0
143700	19.175796	0
143900	19.229001	0
144100	19.282279	0
144300	19.335631	0
144500	19.389057	0
144700	19.442556	0
144900	19.496129	0
145100	19.549776	0
145300	19.603496	0
145500	19.657290	0
145700	19.711158	0
145900	19.765100	0
146100	19.819115	0
146300	19.873204	0
146500	19.927367	0
146700	19.981603	0
146900	20.035914	0
147100	20.090297	0
147300	20.144755	0
147500	20.199286	0
147700	20.253891	0
147900	20.308570	0
148100	20.363322	0
148300	20.418148	0
148500	20.473048	0
148700	20.528022	0
148900	20.583069	0
149100	20.638190	1
149300	20.693384	0
149500	20.748653	0
149700	20.803995	0
149900	20.859411	0
150100	20.914900	0
150300	20.970463	0
150500	21.026100	0
150700	21.081811	0
150900	21.137595	0
151100	21.193453	0
151300	21.249385	0
151500	21.305390	0
151700	21.361469	0
151900	21.417622	0
152100	21.473848	0
152300	21.530149	0
152500	21.586523	0
152700	21.642970	0
152900	21.699492	1
153100	21.756087	1
153300	21.812756	2
153500	21.869498	0
153700	21.926314	0
153900	21.983204	1
154100	22.040168	0
154300	22.097205	0
154500	22.154316	1
154700	22.211501	0
154900	22.268759	0
155100	22.326091	0
155300	22.383497	0
155500	22.440977	0
155700	22.498530	0
155900	22.556157	0
156100	22.613858	4
156300	22.671632	0
156500	22.729480	0
156700	22.787402	0
156900	22.845398	0
157100	22.903467	0
157300	22.961610	11
157500	23.019826	16
157700	23.078117	0
157900	23.136481	3
158100	23.194918	0
158300	23.253430	0
158500	23.312015	0
158700	23.370674	0
158900	23.429407	0
159100	23.488213	0
159300	23.547093	12
159500	23.606047	17
159700	23.665074	3
159900	23.724175	1
160100	23.783350	1
160300	23.842598	0
160500	23.901921	17
160700	23.961317	545
160900	24.020786	101726
161100	24.080330	36
161300	24.139947	7
161500	24.199638	5
161700	24.259402	5
161900	24.319240	6
162100	24.379152	5
162300	24.439138	4
162500	24.499197	4
162700	24.559330	26
162900	24.619537	0
163100	24.679817	7
163300	24.740172	9
163500	24.800599	3
163700	24.861101	5
163900	24.921676	32
164100	24.982325	128416
164300	25.043048	24846
164500	25.103844	55
164700	25.164714	17
164900	25.225658	14
165100	25.286676	7
165300	25.347767	9
165500	25.408932	5
165700	25.470171	1
165900	25.531483	4
166100	25.592869	11
166300	25.654329	1
166500	25.715862	1
166700	25.777469	5
166900	25.839150	2
167100	25.900905	11
167300	25.962733	301
167500	26.024635	71389
167700	26.086611	751
167900	26.148660	234
168100	26.210783	107
168300	26.272980	41
168500	26.335251	33
168700	26.397595	25
168900	26.460013	24
169100	26.522505	17
169300	26.585070	5
169500	26.647709	10
169700	26.710422	10
169900	26.773209	6
170100	26.836069	6
170300	26.899003	7
170500	26.962010	11
170700	27.025092	1542
170900	27.088247	12
171100	27.151475	8
171300	27.214778	5
171500	27.278154	1
171700	27.341604	1
171900	27.405127	6
172100	27.468725	1
172300	27.532396	1
172500	27.596140	1
172700	27.659959	2
172900	27.723851	2
173100	27.787817	4
173300	27.851856	0
173500	27.915970	2
173700	27.980157	25
173900	28.044417	22
174100	28.108752	0
174300	28.173160	1
174500	28.237641	0
174700	28.302197	0
174900	28.366826	0
175100	28.431529	0
175300	28.496306	0
175500	28.561156	0
175700	28.626080	1
175900	28.691078	1
176100	28.756149	0
176300	28.821294	0
176500	28.886513	0
176700	28.951806	6
176900	29.017172	98
177100	29.082612	0
177300	29.148126	2
177500	29.213713	0
177700	29.279374	0
177900	29.345109	0
178100	29.410917	0
178300	29.476800	0
178500	29.542756	1
178700	29.608785	2
178900	29.674888	1
179100	29.741066	1
179300	29.807316	0
179500	29.873641	1
179700	29.940039	0
179900	30.006511	12
180100	30.073056	0
180300	30.139676	2
180500	30.206369	2
180700	30.273135	2
180900	30.339976	1
181100	30.406890	0
181300	30.473878	3
181500	30.540939	0
181700	30.608075	1
181900	30.675284	1
182100	30.742566	1
182300	30.809923	0
182500	30.877353	0
182700	30.944856	0
182900	31.012434	306
183100	31.080085	1
183300	31.147810	1
183500	31.215609	2
183700	31.283481	0
183900	31.351427	0
184100	31.419447	0
184300	31.487540	0
184500	31.555707	0
184700	31.623948	0
184900	31.692263	0
185100	31.760651	0
185300	31.829113	0
185500	31.897649	1
185700	31.966258	821
185900	32.034941	20
186100	32.103698	0
186300	32.172529	0
186500	32.241433	0
186700	32.310411	1
186900	32.379462	0
187100	32.448588	0
187300	32.517787	0
187500	32.587060	0
187700	32.656406	0
187900	32.725826	1
188100	32.795320	0
188300	32.864888	0
188500	32.934529	0
188700	33.004244	289
188900	33.074033	0
189100	33.143895	0
189300	33.213831	3
189500	33.283841	3
189700	33.353925	3
189900	33.424082	1
190100	33.494313	0
190300	33.564618	0
190500	33.634996	0
190700	33.705448	1
190900	33.775974	2
191100	33.846573	0
191300	33.917246	0
191500	33.987993	18
191700	34.058814	2
191900	34.129708	1
192100	34.200676	0
192300	34.271718	2
192500	34.342834	0
192700	34.414023	9
192900	34.485286	26
193100	34.556622	8
193300	34.628032	5
193500	34.699516	1
193700	34.771074	0
193900	34.842706	46
194100	34.914411	237
194300	34.986190	178777
194500	35.058042	817
194700	35.129968	168
194900	35.201968	63
195100	35.274042	37
195300	35.346189	16
195500	35.418410	9
195700	35.490705	15
195900	35.563074	7
196100	35.635516	7
196300	35.708032	5
196500	35.780621	4
196700	35.853285	12
196900	35.926022	22
197100	35.998832	33287
197300	36.071717	69
197500	36.144675	9
197700	36.217707	3
197900	36.290812	4
198100	36.363992	4
198300	36.437245	6
198500	36.510571	1
198700	36.583972	5
198900	36.657446	0
199100	36.730994	3
199300	36.804615	6
199500	36.878310	11
199700	36.952079	55853
199900	37.025922	7664
200100	37.099838	102
200300	37.173828	27
200500	37.247892	13
200700	37.322029	10
200900	37.396241	6
201100	37.470525	5
201300	37.544884	2
201500	37.619316	0
201700	37.693822	0
201900	37.768402	3
202100	37.843055	0
202300	37.917783	3
202500	37.992583	2279
202700	38.067458	40
202900	38.142406	2
203100	38.217428	1
203300	38.292524	0
203500	38.367693	2
203700	38.442936	1
203900	38.518253	5
204100	38.593644	2
204300	38.669108	1
204500	38.744646	0
204700	38.820257	0
204900	38.895943	0
205100	38.971702	124
205300	39.047534	987
205500	39.123441	2
205700	39.199421	1
205900	39.275475	1
206100	39.351602	0
206300	39.427804	1
206500	39.504079	3
206700	39.580427	4
206900	39.656850	3
207100	39.733346	0
207300	39.809916	1
207500	39.886559	1
207700	39.963276	3495
207900	40.040067	782
208100	40.116932	4
