# Binning: 200 channels
# Deadtime Correction: on
Channel	m/z	Intensity
100	0.000282	0
300	0.000523	60
500	0.000838	1
700	0.001226	0
900	0.001688	0
1100	0.002224	1
1300	0.002833	8
1500	0.003516	16
1700	0.004273	14
1900	0.005104	3
2100	0.006008	0
2300	0.006986	1
2500	0.008038	1
2700	0.009163	2
2900	0.010362	1
3100	0.011635	1
3300	0.012982	0
3500	0.014402	0
3700	0.015896	0
3900	0.017464	0
4100	0.019105	0
4300	0.020820	0
4500	0.022609	0
4700	0.024471	0
4900	0.026408	0
5100	0.028418	0
5300	0.030501	2
5500	0.032659	0
5700	0.034890	1
5900	0.037195	0
6100	0.039573	0
6300	0.042025	0
6500	0.044551	0
6700	0.047151	1
6900	0.049824	0
7100	0.052572	1
7300	0.055392	1
7500	0.058287	0
7700	0.061255	1
7900	0.064297	1
8100	0.067413	1
8300	0.070602	1
8500	0.073865	0
8700	0.077202	0
8900	0.080613	0
9100	0.084097	2
9300	0.087655	0
9500	0.091286	0
9700	0.094992	0
9900	0.098771	0
10100	0.102624	0
10300	0.106550	0
10500	0.110550	1
10700	0.114624	0
10900	0.118772	0
11100	0.122993	1
11300	0.127288	0
11500	0.131657	0
11700	0.136100	0
11900	0.140616	0
12100	0.145206	0
12300	0.149870	0
12500	0.154607	0
12700	0.159418	0
12900	0.164303	0
13100	0.169261	0
13300	0.174293	0
13500	0.179399	0
13700	0.184579	0
13900	0.189832	0
14100	0.195159	0
14300	0.200560	0
14500	0.206035	0
14700	0.211583	0
14900	0.217205	0
15100	0.222900	0
15300	0.228670	0
15500	0.234513	0
15700	0.240430	0
15900	0.246420	0
16100	0.252484	0
16300	0.258622	1
16500	0.264834	0
16700	0.271119	0
16900	0.277478	0
17100	0.283911	0
17300	0.290417	0
17500	0.296998	0
17700	0.303652	0
17900	0.310379	0
18100	0.317180	0
18300	0.324055	0
18500	0.331004	0
18700	0.338027	0
18900	0.345123	0
19100	0.352293	0
19300	0.359536	0
19500	0.366854	0
19700	0.374245	0
19900	0.381709	0
20100	0.389248	0
20300	0.396860	0
20500	0.404546	0
20700	0.412306	0
20900	0.420139	1
21100	0.428046	0
21300	0.436027	0
21500	0.444081	0
21700	0.452209	0
21900	0.460411	0
22100	0.468687	0
22300	0.477036	0
22500	0.485459	0
22700	0.493956	0
22900	0.502526	0
23100	0.511170	0
23300	0.519888	0
23500	0.528680	0
23700	0.537545	0
23900	0.546484	0
24100	0.555497	0
24300	0.564583	0
24500	0.573743	0
24700	0.582977	0
24900	0.592285	0
25100	0.601666	0
25300	0.611121	0
25500	0.620650	0
25700	0.630252	0
25900	0.639928	0
26100	0.649678	0
26300	0.659502	0
26500	0.669399	0
26700	0.679370	0
26900	0.689415	0
27100	0.699533	0
27300	0.709725	0
27500	0.719991	0
27700	0.730331	0
27900	0.740744	0
28100	0.751231	0
28300	0.761792	0
28500	0.772426	0
28700	0.783134	0
28900	0.793916	0
29100	0.804771	0
29300	0.815701	0
29500	0.826704	0
29700	0.837780	0
29900	0.848931	0
30100	0.860155	0
30300	0.871453	0
30500	0.882824	0
30700	0.894269	0
30900	0.905788	0
31100	0.917381	1
31300	0.929047	0
31500	0.940788	0
31700	0.952601	0
31900	0.964489	23
32100	0.976450	13
32300	0.988485	19
32500	1.000594	223
32700	1.012776	460087
32900	1.025032	80
33100	1.037362	33
33300	1.049766	18
33500	1.062243	8
33700	1.074794	9
33900	1.087418	7
34100	1.100117	5
34300	1.112889	5
34500	1.125735	1
34700	1.138654	3
34900	1.151647	2
35100	1.164714	1
35300	1.177855	3
35500	1.191069	0
35700	1.204357	1
35900	1.217719	1
36100	1.231155	2
36300	1.244664	1
36500	1.258247	2
36700	1.271904	0
36900	1.285634	0
37100	1.299438	0
37300	1.313316	0
37500	1.327267	2
37700	1.341292	0
37900	1.355391	0
38100	1.369564	1
38300	1.383810	0
38500	1.398130	0
38700	1.412524	0
38900	1.426992	0
39100	1.441533	0
39300	1.456148	0
39500	1.470836	0
39700	1.485599	0
39900	1.500435	0
40100	1.515345	0
40300	1.530328	0
40500	1.545385	0
40700	1.560516	0
40900	1.575721	0
41100	1.590999	0
41300	1.606351	0
41500	1.621777	0
41700	1.637276	0
41900	1.652850	0
42100	1.668496	1
42300	1.684217	0
42500	1.700011	0
42700	1.715879	0
42900	1.731821	0
43100	1.747837	0
43300	1.763926	0
43500	1.780089	1
43700	1.796325	0
43900	1.812636	0
44100	1.829020	0
44300	1.845477	0
44500	1.862009	0
44700	1.878614	0
44900	1.895293	0
45100	1.912045	0
45300	1.928872	0
45500	1.945772	0
45700	1.962745	0
45900	1.979793	0
46100	1.996914	0
46300	2.014109	27
46500	2.031378	0
46700	2.048720	0
46900	2.066136	0
47100	2.083626	0
47300	2.101189	0
47500	2.118826	0
47700	2.136537	0
47900	2.154322	0
48100	2.172180	0
48300	2.190112	0
48500	2.208118	0
48700	2.226197	0
48900	2.244350	1
49100	2.262577	0
49300	2.280878	0
49500	2.299252	0
49700	2.317700	0
49900	2.336222	0
50100	2.354817	0
50300	2.373486	0
50500	2.392229	0
50700	2.411046	0
50900	2.429936	0
51100	2.448900	0
51300	2.467937	0
51500	2.487049	0
51700	2.506234	0
51900	2.525493	0
52100	2.544825	0
52300	2.564232	0
52500	2.583712	0
52700	2.603265	0
52900	2.622893	0
53100	2.642594	0
53300	2.662369	0
53500	2.682217	0
53700	2.702139	0
53900	2.722135	0
54100	2.742205	0
54300	2.762349	0
54500	2.782566	0
54700	2.802856	0
54900	2.823221	0
55100	2.843659	0
55300	2.864171	0
55500	2.884757	0
55700	2.905416	0
55900	2.926149	0
56100	2.946956	0
56300	2.967837	0
56500	2.988791	0
56700	3.009819	1
56900	3.030921	0
57100	3.052096	0
57300	3.073345	0
57500	3.094668	0
57700	3.116064	0
57900	3.137535	0
58100	3.159079	0
58300	3.180696	0
58500	3.202388	0
58700	3.224153	0
58900	3.245991	0
59100	3.267904	0
59300	3.289890	0
59500	3.311950	0
59700	3.334084	0
59900	3.356291	0
60100	3.378572	0
60300	3.400927	0
60500	3.423355	0
60700	3.445858	1
60900	3.468434	0
61100	3.491083	0
61300	3.513807	0
61500	3.536604	0
61700	3.559474	0
61900	3.582419	0
62100	3.605437	0
62300	3.628529	0
62500	3.651695	0
62700	3.674934	0
62900	3.698247	1
63100	3.721634	2
63300	3.745094	0
63500	3.768629	0
63700	3.792236	0
63900	3.815918	0
64100	3.839673	0
64300	3.863502	0
64500	3.887405	0
64700	3.911382	0
64900	3.935432	0
65100	3.959556	0
65300	3.983753	0
65500	4.008025	0
65700	4.032370	0
65900	4.056789	0
66100	4.081281	0
66300	4.105847	0
66500	4.130487	0
66700	4.155201	0
66900	4.179988	0
67100	4.204849	0
67300	4.229784	0
67500	4.254792	0
67700	4.279874	0
67900	4.305030	0
68100	4.330260	0
68300	4.355563	0
68500	4.380940	0
68700	4.406391	0
68900	4.431915	0
69100	4.457514	0
69300	4.483186	0
69500	4.508931	0
69700	4.534750	0
69900	4.560643	0
70100	4.586610	0
70300	4.612651	0
70500	4.638765	0
70700	4.664953	0
70900	4.691214	0
71100	4.717549	0
71300	4.743958	0
71500	4.770441	0
71700	4.796998	0
71900	4.823628	0
72100	4.850332	0
72300	4.877109	0
72500	4.903961	0
72700	4.930886	0
72900	4.957884	0
73100	4.984957	0
73300	5.012103	0
73500	5.039323	0
73700	5.066616	0
73900	5.093984	0
74100	5.121424	0
74300	5.148939	0
74500	5.176528	0
74700	5.204190	0
74900	5.231926	0
75100	5.259735	0
75300	5.287618	0
75500	5.315575	0
75700	5.343606	0
75900	5.371711	1
76100	5.399889	0
76300	5.428140	0
76500	5.456466	0
76700	5.484865	0
76900	5.513338	0
77100	5.541885	0
77300	5.570505	0
77500	5.599199	0
77700	5.627967	0
77900	5.656809	1
78100	5.685724	0
78300	5.714713	0
78500	5.743776	0
78700	5.772912	1
78900	5.802122	0
79100	5.831406	0
79300	5.860764	0
79500	5.890195	0
79700	5.919700	0
79900	5.949278	0
80100	5.978931	0
80300	6.008657	1
80500	6.038457	0
80700	6.068330	0
80900	6.098278	0
81100	6.128298	0
81300	6.158393	0
81500	6.188562	0
81700	6.218804	0
81900	6.249119	0
82100	6.279509	0
82300	6.309972	0
82500	6.340509	0
82700	6.371120	0
82900	6.401804	1
83100	6.432562	0
83300	6.463394	0
83500	6.494300	0
83700	6.525279	0
83900	6.556332	0
84100	6.587458	0
84300	6.618659	0
84500	6.649933	0
84700	6.681281	0
84900	6.712702	1
85100	6.744197	0
85300	6.775766	0
85500	6.807409	0
85700	6.839125	0
85900	6.870915	0
86100	6.902779	0
86300	6.934716	1
86500	6.966728	1
86700	6.998813	0
86900	7.030971	0
87100	7.063204	0
87300	7.095510	0
87500	7.127889	1
87700	7.160343	0
87900	7.192870	0
88100	7.225471	0
88300	7.258146	0
88500	7.290894	0
88700	7.323716	0
88900	7.356612	0
89100	7.389581	0
89300	7.422624	0
89500	7.455741	0
89700	7.488932	0
89900	7.522196	0
90100	7.555534	0
90300	7.588946	0
90500	7.622432	0
90700	7.655991	0
90900	7.689624	0
91100	7.723330	0
91300	7.757111	0
91500	7.790965	0
91700	7.824892	0
91900	7.858894	0
92100	7.892969	0
92300	7.927118	0
92500	7.961340	0
92700	7.995637	0
92900	8.030007	0
93100	8.064450	0
93300	8.098968	0
93500	8.133559	0
93700	8.168224	0
93900	8.202963	0
94100	8.237775	0
94300	8.272661	0
94500	8.307621	0
94700	8.342654	0
94900	8.377761	0
95100	8.412942	0
95300	8.448197	0
95500	8.483525	0
95700	8.518927	0
95900	8.554403	0
96100	8.589952	0
96300	8.625575	0
96500	8.661272	0
96700	8.697043	0
96900	8.732887	0
97100	8.768805	0
97300	8.804797	0
97500	8.840862	0
97700	8.877001	0
97900	8.913214	0
98100	8.949501	0
98300	8.985861	0
98500	9.022295	0
98700	9.058803	0
98900	9.095384	0
99100	9.132039	0
99300	9.168768	0
99500	9.205571	0
99700	9.242447	0
99900	9.279397	0
100100	9.316421	0
100300	9.353518	0
100500	9.390689	0
100700	9.427934	0
100900	9.465252	0
101100	9.502645	0
101300	9.540111	0
101500	9.577650	0
101700	9.615264	0
101900	9.652951	0
102100	9.690712	0
102300	9.728546	0
102500	9.766454	0
102700	9.804436	0
102900	9.842492	0
103100	9.880622	0
103300	9.918825	0
103500	9.957101	0
103700	9.995452	0
103900	10.033876	0
104100	10.072374	0
104300	10.110946	0
104500	10.149591	0
104700	10.188310	0
104900	10.227103	0
105100	10.265970	0
105300	10.304910	1
105500	10.343924	0
105700	10.383012	0
105900	10.422173	0
106100	10.461408	0
106300	10.500717	0
106500	10.540099	0
106700	10.579556	0
106900	10.619085	0
107100	10.658689	2
107300	10.698366	1
107500	10.738118	1
107700	10.777942	0
107900	10.817841	0
108100	10.857813	0
108300	10.897859	0
108500	10.937979	0
108700	10.978172	1
108900	11.018439	0
109100	11.058780	0
109300	11.099194	0
109500	11.139683	0
109700	11.180244	0
109900	11.220880	0
110100	11.261589	0
110300	11.302373	0
110500	11.343229	0
110700	11.384160	0
110900	11.425164	0
111100	11.466242	0
111300	11.507394	0
111500	11.548619	0
111700	11.589918	0
111900	11.631291	0
112100	11.672737	0
112300	11.714257	1
112500	11.755851	0
112700	11.797519	1
112900	11.839260	4
113100	11.881075	1
113300	11.922964	0
113500	11.964927	26
113700	12.006963	71089
113900	12.049073	10
114100	12.091256	1
114300	12.133514	0
114500	12.175845	1
114700	12.218249	2
114900	12.260728	0
115100	12.303280	1
115300	12.345906	1
115500	12.388605	1
115700	12.431379	3
115900	12.474226	0
116100	12.517147	2
116300	12.560141	1
116500	12.603209	2
116700	12.646351	2
116900	12.689567	3
117100	12.732856	0
117300	12.776219	0
117500	12.819656	1
117700	12.863166	8
117900	12.906750	1
118100	12.950408	2
118300	12.994140	74104
118500	13.037945	424
118700	13.081824	4
118900	13.125777	4
119100	13.169803	2
119300	13.213903	4
119500	13.258077	2
119700	13.302325	6
119900	13.346646	3
120100	13.391041	1
120300	13.435510	0
120500	13.480052	0
120700	13.524668	20
120900	13.569358	9
121100	13.614122	0
121300	13.658959	1
121500	13.703870	2
121700	13.748855	2
121900	13.793913	1
122100	13.839045	1
122300	13.884251	1
122500	13.929531	2
122700	13.974884	0
122900	14.020311	6162
123100	14.065812	6
123300	14.111386	2
123500	14.157034	0
123700	14.202756	1
123900	14.248552	3
124100	14.294421	1
124300	14.340364	0
124500	14.386381	0
124700	14.432471	0
124900	14.478635	0
125100	14.524873	1
125300	14.571185	5
125500	14.617570	5
125700	14.664029	1
125900	14.710562	2
126100	14.757168	0
126300	14.803848	1
126500	14.850602	1
126700	14.897429	0
126900	14.944331	0
127100	14.991306	61
127300	15.038354	2704
127500	15.085477	3
127700	15.132673	1
127900	15.179943	1
128100	15.227286	1
128300	15.274703	1
128500	15.322194	0
128700	15.369759	0
128900	15.417397	0
129100	15.465109	2
129300	15.512895	1
129500	15.560755	1
129700	15.608688	0
129900	15.656695	6
130100	15.704776	0
130300	15.752930	1
130500	15.801158	2
130700	15.849460	7
130900	15.897835	4
131100	15.946285	13
131300	15.994808	132947
131500	16.043404	141
131700	16.092075	0
131900	16.140819	3
132100	16.189636	2
132300	16.238528	1
132500	16.287493	3
132700	16.336532	2
132900	16.385645	3
133100	16.434831	2
133300	16.484091	0
133500	16.533425	0
133700	16.582832	0
133900	16.632314	0
134100	16.681869	0
134300	16.731497	0
134500	16.781200	1
134700	16.830976	2
134900	16.880825	2
135100	16.930749	0
135300	16.980746	54531
135500	17.030817	9125
135700	17.080962	6
135900	17.131180	1
136100	17.181472	1
136300	17.231838	3
136500	17.282277	5
136700	17.332791	2
136900	17.383377	2
137100	17.434038	2
137300	17.484772	0
137500	17.535580	2
137700	17.586462	0
137900	17.637418	3
138100	17.688447	16
138300	17.739550	3
138500	17.790726	0
138700	17.841977	0
138900	17.893301	1
139100	17.944698	1
139300	17.996170	256
139500	18.047715	1
139700	18.099334	1
139900	18.151027	0
140100	18.202793	0
140300	18.254633	1
140500	18.306547	0
140700	18.358534	0
140900	18.410595	0
141100	18.462730	1
141300	18.514939	0
141500	18.567221	0
141700	18.619577	0
141900	18.672007	1
142100	18.724510	0
142300	18.777087	1
142500	18.829738	2
142700	18.882463	2
142900	18.935261	1
143100	18.988133	9727
143300	19.041079	100
143500	19.094098	3
143700	19.147192	0
143900	19.200358	4
144100	19.253599	4
144300	19.306913	1
144500	19.360301	0
144700	19.413763	0
144900	19.467298	0
145100	19.520908	1
145300	19.574590	3
145500	19.628347	0
145700	19.682177	0
145900	19.736081	0
146100	19.790059	1
146300	19.844110	0
146500	19.898236	0
146700	19.952434	0
146900	20.006707	0
147100	20.061053	0
147300	20.115473	0
147500	20.169967	0
147700	20.224534	0
147900	20.279175	0
148100	20.333890	0
148300	20.388679	0
148500	20.443541	0
148700	20.498477	1
148900	20.553487	0
149100	20.608570	0
149300	20.663727	1
149500	20.718958	0
149700	20.774263	0
149900	20.829641	0
150100	20.885093	0
150300	20.940619	0
150500	20.996218	0
150700	21.051891	0
150900	21.107638	0
151100	21.163458	0
151300	21.219353	0
151500	21.275321	0
151700	21.331362	0
151900	21.387478	0
152100	21.443667	0
152300	21.499930	0
152500	21.556266	0
152700	21.612676	1
152900	21.669160	1
153100	21.725718	1
153300	21.782349	1
153500	21.839054	1
153700	21.895833	0
153900	21.952686	0
154100	22.009612	2
154300	22.066612	0
154500	22.123686	0
154700	22.180833	0
154900	22.238054	1
155100	22.295349	2
155300	22.352717	0
155500	22.410160	0
155700	22.467676	0
155900	22.525265	0
156100	22.582929	1
156300	22.640666	0
156500	22.698476	1
156700	22.756361	1
156900	22.814319	0
157100	22.872351	0
157300	22.930457	0
157500	22.988636	56
157700	23.046889	1
157900	23.105216	1
158100	23.163616	1
158300	23.222091	0
158500	23.280639	1
158700	23.339260	0
158900	23.397956	1
159100	23.456725	1
159300	23.515567	1
159500	23.574484	1
159700	23.633474	0
159900	23.692538	1
160100	23.751676	0
160300	23.810887	18
160500	23.870172	2
160700	23.929531	68
160900	23.988963	338089
161100	24.048469	403
161300	24.108049	34
161500	24.167703	22
161700	24.227430	22
161900	24.287231	13
162100	24.347106	12
162300	24.407055	14
162500	24.467077	10
162700	24.527173	11
162900	24.587342	9
163100	24.647586	10
163300	24.707903	10
163500	24.768293	12
163700	24.828758	33
163900	24.889296	10
164100	24.949908	44
164300	25.010593	502354
164500	25.071353	404
164700	25.132186	46
164900	25.193093	33
165100	25.254073	16
165300	25.315127	20
165500	25.376255	16
165700	25.437457	15
165900	25.498732	12
166100	25.560081	13
166300	25.621504	6
166500	25.683000	9
166700	25.744570	3
166900	25.806214	22
167100	25.867932	1
167300	25.929723	15
167500	25.991588	180994
167700	26.053527	4724
167900	26.115539	771
168100	26.177625	327
168300	26.239785	145
168500	26.302019	74
168700	26.364326	52
168900	26.426707	39
169100	26.489162	20
169300	26.551690	19
169500	26.614292	14
169700	26.676968	16
169900	26.739718	13
170100	26.802541	7
170300	26.865438	4
170500	26.928409	12
170700	26.991453	3303
170900	27.054571	990
171100	27.117763	27
171300	27.181029	11
171500	27.244368	7
171700	27.307781	5
171900	27.371268	7
172100	27.434828	3
172300	27.498462	6
172500	27.562170	4
172700	27.625952	3
172900	27.689807	4
173100	27.753736	5
173300	27.817739	3
173500	27.881815	2
173700	27.945965	25
173900	28.010189	119
174100	28.074486	6
174300	28.138858	1
174500	28.203303	3
174700	28.267821	1
174900	28.332414	5
175100	28.397080	4
175300	28.461820	1
175500	28.526633	4
175700	28.591520	1
175900	28.656481	0
176100	28.721516	1
176300	28.786624	2
176500	28.851807	3
176700	28.917062	2
176900	28.982392	363
177100	29.047795	15
177300	29.113272	3
177500	29.178823	3
177700	29.244447	0
177900	29.310145	0
178100	29.375917	1
178300	29.441763	1
178500	29.507682	0
178700	29.573675	1
178900	29.639741	1
179100	29.705882	1
179300	29.772096	2
179500	29.838384	0
179700	29.904745	0
179900	29.971180	58
180100	30.037689	8
180300	30.104272	4
180500	30.170928	2
180700	30.237658	0
180900	30.304462	0
181100	30.371340	1
181300	30.438291	2
181500	30.505316	2
181700	30.572414	1
181900	30.639587	0
182100	30.706833	3
182300	30.774153	1
182500	30.841546	3
182700	30.909013	1
182900	30.976554	62
183100	31.044169	678
183300	31.111857	2
183500	31.179619	1
183700	31.247455	0
183900	31.315365	2
184100	31.383348	1
184300	31.451405	0
184500	31.519535	1
184700	31.587740	0
184900	31.656018	0
185100	31.724369	2
185300	31.792795	1
185500	31.861294	2
185700	31.929867	7
185900	31.998514	2797
186100	32.067234	0
186300	32.136028	5
186500	32.204896	0
186700	32.273837	0
186900	32.342852	0
187100	32.411941	1
187300	32.481104	0
187500	32.550340	0
187700	32.619650	0
187900	32.689034	0
188100	32.758491	0
188300	32.828023	0
188500	32.897628	0
188700	32.967306	918
188900	33.037058	45
189100	33.106884	1
189300	33.176784	1
189500	33.246758	0
189700	33.316805	0
189900	33.386926	1
190100	33.457120	1
190300	33.527389	2
190500	33.597731	2
190700	33.668146	0
190900	33.738636	0
191100	33.809199	1
191300	33.879836	1
191500	33.950546	58
191700	34.021331	24
191900	34.092189	0
192100	34.163120	2
192300	34.234126	0
192500	34.305205	1
192700	34.376358	1
192900	34.447584	1
193100	34.518885	2
193300	34.590259	1
193500	34.661706	0
193700	34.733228	13
193900	34.804823	2
194100	34.876492	8
194300	34.948234	509952
194500	35.020051	11635
194700	35.091941	546
194900	35.163904	202
195100	35.235942	93
195300	35.308053	43
195500	35.380238	28
195700	35.452496	17
195900	35.524829	21
196100	35.597235	15
196300	35.669714	11
196500	35.742268	10
196700	35.814895	7
196900	35.887596	5
197100	35.960370	12102
197300	36.033218	51664
197500	36.106140	16
197700	36.179136	4
197900	36.252206	7
198100	36.325349	9
198300	36.398565	0
198500	36.471856	3
198700	36.545220	3
198900	36.618658	2
199100	36.692170	8
199300	36.765755	6
199500	36.839414	2
199700	36.913147	67
199900	36.986954	183946
200100	37.060834	519
200300	37.134788	98
200500	37.208816	36
200700	37.282917	17
200900	37.357092	10
201100	37.431341	11
201300	37.505663	12
201500	37.580060	0
201700	37.654530	6
201900	37.729073	3
202100	37.803691	4
202300	37.878382	3
202500	37.953147	40
202700	38.027985	6884
202900	38.102897	7
203100	38.177883	5
203300	38.252943	3
203500	38.328076	3
203700	38.403283	2
203900	38.478564	5
204100	38.553919	10
204300	38.629347	3
204500	38.704849	0
204700	38.780425	1
204900	38.856074	1
205100	38.931797	5
205300	39.007594	3742
205500	39.083464	32
205700	39.159408	4
205900	39.235426	0
206100	39.311518	1
206300	39.387683	0
206500	39.463922	2
206700	39.540235	3
206900	39.616622	18
207100	39.693082	3
207300	39.769616	0
207500	39.846223	2
207700	39.922905	2
