# Binning: 200 channels
# Deadtime Correction: on
Channel	m/z	Intensity
100	0.000242	0
300	0.000465	14
500	0.000761	0
700	0.001128	0
900	0.001569	0
1100	0.002081	1
1300	0.002666	11
1500	0.003323	21
1700	0.004052	11
1900	0.004854	1
2100	0.005728	0
2300	0.006674	0
2500	0.007693	4
2700	0.008784	1
2900	0.009947	1
3100	0.011183	2
3300	0.012491	1
3500	0.013871	0
3700	0.015324	0
3900	0.016848	0
4100	0.018446	0
4300	0.020115	1
4500	0.021857	0
4700	0.023671	0
4900	0.025558	0
5100	0.027516	0
5300	0.029547	1
5500	0.031651	3
5700	0.033826	0
5900	0.036074	0
6100	0.038395	2
6300	0.040787	0
6500	0.043252	0
6700	0.045790	0
6900	0.048399	0
7100	0.051081	0
7300	0.053835	0
7500	0.056662	0
7700	0.059561	0
7900	0.062532	1
8100	0.065576	1
8300	0.068691	0
8500	0.071879	0
8700	0.075140	0
8900	0.078473	0
9100	0.081878	0
9300	0.085355	1
9500	0.088905	0
9700	0.092527	1
9900	0.096221	0
10100	0.099988	0
10300	0.103827	1
10500	0.107738	0
10700	0.111722	0
10900	0.115778	0
11100	0.119906	0
11300	0.124106	1
11500	0.128379	2
11700	0.132724	0
11900	0.137142	0
12100	0.141632	0
12300	0.146194	1
12500	0.150828	0
12700	0.155535	0
12900	0.160314	1
13100	0.165165	0
13300	0.170089	0
13500	0.175085	1
13700	0.180153	0
13900	0.185294	0
14100	0.190507	1
14300	0.195792	0
14500	0.201150	0
14700	0.206580	0
14900	0.212082	0
15100	0.217656	0
15300	0.223303	0
15500	0.229022	0
15700	0.234814	0
15900	0.240678	0
16100	0.246614	0
16300	0.252622	0
16500	0.258703	0
16700	0.264856	0
16900	0.271081	0
17100	0.277379	0
17300	0.283749	0
17500	0.290191	0
17700	0.296706	0
17900	0.303293	1
18100	0.309952	0
18300	0.316684	0
18500	0.323488	0
18700	0.330364	0
18900	0.337313	0
19100	0.344333	0
19300	0.351427	0
19500	0.358592	0
19700	0.365830	0
19900	0.373140	0
20100	0.380522	2
20300	0.387977	0
20500	0.395504	0
20700	0.403103	0
20900	0.410775	0
21100	0.418519	0
21300	0.426335	0
21500	0.434224	0
21700	0.442185	1
21900	0.450218	1
22100	0.458324	0
22300	0.466502	0
22500	0.474752	0
22700	0.483074	0
22900	0.491469	0
23100	0.499936	0
23300	0.508476	0
23500	0.517088	0
23700	0.525772	1
23900	0.534528	0
24100	0.543357	0
24300	0.552258	0
24500	0.561231	0
24700	0.570277	0
24900	0.579395	0
25100	0.588585	0
25300	0.597848	0
25500	0.607183	0
25700	0.616590	1
25900	0.626070	0
26100	0.635621	1
26300	0.645246	0
26500	0.654942	0
26700	0.664711	1
26900	0.674552	0
27100	0.684466	0
27300	0.694451	0
27500	0.704509	0
27700	0.714640	0
27900	0.724843	0
28100	0.735118	0
28300	0.745465	0
28500	0.755885	0
28700	0.766377	0
28900	0.776941	0
29100	0.787577	0
29300	0.798286	0
29500	0.809068	0
29700	0.819921	0
29900	0.830847	0
30100	0.841845	0
30300	0.852916	1
30500	0.864059	0
30700	0.875274	1
30900	0.886561	1
31100	0.897921	1
31300	0.909353	0
31500	0.920857	3
31700	0.932434	0
31900	0.944083	3
32100	0.955804	6
32300	0.967598	11
32500	0.979464	36
32700	0.991402	148
32900	1.003413	402226
33100	1.015496	6059
33300	1.027651	225
33500	1.039879	61
33700	1.052179	28
33900	1.064551	11
34100	1.076995	9
34300	1.089512	13
34500	1.102101	6
34700	1.114763	7
34900	1.127496	2
35100	1.140302	4
35300	1.153181	6
35500	1.166132	3
35700	1.179155	4
35900	1.192250	0
36100	1.205418	3
36300	1.218657	0
36500	1.231970	1
36700	1.245354	0
36900	1.258811	0
37100	1.272341	1
37300	1.285942	1
37500	1.299616	1
37700	1.313362	0
37900	1.327181	1
38100	1.341071	0
38300	1.355034	0
38500	1.369070	1
38700	1.383178	1
38900	1.397358	0
39100	1.411610	0
39300	1.425935	0
39500	1.440332	1
39700	1.454801	0
39900	1.469343	1
40100	1.483957	0
40300	1.498643	0
40500	1.513402	0
40700	1.528233	1
40900	1.543136	1
41100	1.558111	0
41300	1.573159	1
41500	1.588279	1
41700	1.603472	2
41900	1.618737	0
42100	1.634074	0
42300	1.649483	0
42500	1.664965	0
42700	1.680519	0
42900	1.696145	0
43100	1.711844	0
43300	1.727615	0
43500	1.743458	0
43700	1.759374	0
43900	1.775362	0
44100	1.791422	0
44300	1.807555	0
44500	1.823760	0
44700	1.840037	0
44900	1.856386	1
45100	1.872808	0
45300	1.889302	0
45500	1.905869	0
45700	1.922508	1
45900	1.939219	0
46100	1.956002	0
46300	1.972858	0
46500	1.989786	0
46700	2.006786	44
46900	2.023859	13
47100	2.041004	0
47300	2.058221	1
47500	2.075511	0
47700	2.092873	1
47900	2.110307	0
48100	2.127814	0
48300	2.145393	0
48500	2.163044	1
48700	2.180767	0
48900	2.198563	1
49100	2.216431	0
49300	2.234372	0
49500	2.252385	0
49700	2.270470	0
49900	2.288627	0
50100	2.306857	0
50300	2.325159	0
50500	2.343533	0
50700	2.361980	1
50900	2.380499	0
51100	2.399090	0
51300	2.417754	1
51500	2.436490	0
51700	2.455298	0
51900	2.474178	1
52100	2.493131	0
52300	2.512157	0
52500	2.531254	0
52700	2.550424	0
52900	2.569666	0
53100	2.588981	0
53300	2.608367	1
53500	2.627826	0
53700	2.647358	0
53900	2.666961	0
54100	2.686638	0
54300	2.706386	1
54500	2.726207	0
54700	2.746100	1
54900	2.766065	0
55100	2.786102	1
55300	2.806212	0
55500	2.826395	1
55700	2.846649	0
55900	2.866976	0
56100	2.887375	1
56300	2.907847	0
56500	2.928391	1
56700	2.949007	0
56900	2.969695	3
57100	2.990456	0
57300	3.011289	0
57500	3.032194	0
57700	3.053172	0
57900	3.074222	0
58100	3.095344	0
58300	3.116539	0
58500	3.137806	0
58700	3.159145	0
58900	3.180557	0
59100	3.202041	0
59300	3.223597	0
59500	3.245226	0
59700	3.266927	0
59900	3.288700	0
60100	3.310545	0
60300	3.332463	0
60500	3.354453	1
60700	3.376516	0
60900	3.398650	1
61100	3.420857	0
61300	3.443137	0
61500	3.465489	1
61700	3.487913	0
61900	3.510409	1
62100	3.532978	0
62300	3.555619	1
62500	3.578332	0
62700	3.601117	0
62900	3.623975	0
63100	3.646906	1
63300	3.669908	1
63500	3.692983	2
63700	3.716130	1
63900	3.739350	0
64100	3.762641	1
64300	3.786006	0
64500	3.809442	2
64700	3.832951	0
64900	3.856532	1
65100	3.880185	0
65300	3.903911	0
65500	3.927709	0
65700	3.951579	0
65900	3.975522	0
66100	3.999537	0
66300	4.023624	1
66500	4.047784	0
66700	4.072016	0
66900	4.096320	0
67100	4.120696	0
67300	4.145145	0
67500	4.169666	0
67700	4.194260	0
67900	4.218926	0
68100	4.243664	1
68300	4.268474	0
68500	4.293357	0
68700	4.318312	0
68900	4.343339	1
69100	4.368439	0
69300	4.393611	0
69500	4.418855	1
69700	4.444172	0
69900	4.469561	0
70100	4.495022	0
70300	4.520556	1
70500	4.546162	0
70700	4.571840	0
70900	4.597591	0
71100	4.623413	0
71300	4.649309	1
71500	4.675276	0
71700	4.701316	0
71900	4.727428	0
72100	4.753612	0
72300	4.779869	0
72500	4.806198	0
72700	4.832599	0
72900	4.859073	0
73100	4.885619	0
73300	4.912237	0
73500	4.938928	0
73700	4.965691	0
73900	4.992526	1
74100	5.019434	0
74300	5.046414	0
74500	5.073466	0
74700	5.100590	0
74900	5.127787	0
75100	5.155056	0
75300	5.182398	0
75500	5.209812	0
75700	5.237298	0
75900	5.264856	0
76100	5.292487	0
76300	5.320190	0
76500	5.347965	0
76700	5.375813	0
76900	5.403733	0
77100	5.431725	0
77300	5.459790	0
77500	5.487927	0
77700	5.516136	0
77900	5.544418	1
78100	5.572772	0
78300	5.601198	0
78500	5.629696	0
78700	5.658267	0
78900	5.686910	0
79100	5.715626	0
79300	5.744414	0
79500	5.773274	0
79700	5.802206	0
79900	5.831211	0
80100	5.860288	0
80300	5.889437	0
80500	5.918659	1
80700	5.947953	1
80900	5.977319	0
81100	6.006758	0
81300	6.036269	0
81500	6.065852	0
81700	6.095507	0
81900	6.125235	0
82100	6.155036	1
82300	6.184908	0
82500	6.214853	0
82700	6.244870	0
82900	6.274959	0
83100	6.305121	0
83300	6.335355	0
83500	6.365662	1
83700	6.396040	0
83900	6.426491	1
84100	6.457015	0
84300	6.487610	0
84500	6.518278	0
84700	6.549019	0
84900	6.579831	0
85100	6.610716	1
85300	6.641674	0
85500	6.672703	0
85700	6.703805	0
85900	6.734979	0
86100	6.766226	0
86300	6.797544	0
86500	6.828936	1
86700	6.860399	0
86900	6.891935	0
87100	6.923543	1
87300	6.955223	0
87500	6.986976	0
87700	7.018801	2
87900	7.050698	0
88100	7.082668	0
88300	7.114710	0
88500	7.146824	0
88700	7.179011	0
88900	7.211270	0
89100	7.243601	0
89300	7.276005	0
89500	7.308480	0
89700	7.341029	0
89900	7.373649	0
90100	7.406342	0
90300	7.439107	0
90500	7.471944	0
90700	7.504854	1
90900	7.537836	1
91100	7.570891	0
91300	7.604017	0
91500	7.637216	0
91700	7.670488	0
91900	7.703831	0
92100	7.737247	0
92300	7.770736	0
92500	7.804296	0
92700	7.837929	0
92900	7.871634	0
93100	7.905412	0
93300	7.939262	0
93500	7.973184	0
93700	8.007178	0
93900	8.041245	0
94100	8.075384	0
94300	8.109596	0
94500	8.143879	0
94700	8.178236	0
94900	8.212664	0
95100	8.247165	0
95300	8.281738	0
95500	8.316383	0
95700	8.351101	1
95900	8.385891	0
96100	8.420753	0
96300	8.455687	0
96500	8.490694	1
96700	8.525773	0
96900	8.560925	0
97100	8.596149	0
97300	8.631445	0
97500	8.666814	1
97700	8.702254	0
97900	8.737767	0
98100	8.773353	0
98300	8.809011	0
98500	8.844741	0
98700	8.880543	0
98900	8.916418	0
99100	8.952365	0
99300	8.988384	0
99500	9.024476	0
99700	9.060640	0
99900	9.096876	0
100100	9.133184	0
100300	9.169565	0
100500	9.206019	0
100700	9.242544	0
100900	9.279142	0
101100	9.315812	0
101300	9.352555	1
101500	9.389369	0
101700	9.426256	0
101900	9.463216	0
102100	9.500248	0
102300	9.537352	1
102500	9.574528	0
102700	9.611777	0
102900	9.649098	1
103100	9.686491	0
103300	9.723957	0
103500	9.761495	0
103700	9.799105	0
103900	9.836787	0
104100	9.874542	0
104300	9.912369	0
104500	9.950269	0
104700	9.988241	1
104900	10.026285	0
105100	10.064401	0
105300	10.102590	0
105500	10.140851	0
105700	10.179185	0
105900	10.217590	0
106100	10.256068	0
106300	10.294619	0
106500	10.333241	0
106700	10.371936	0
106900	10.410704	0
107100	10.449543	0
107300	10.488455	0
107500	10.527440	0
107700	10.566496	0
107900	10.605625	1
108100	10.644826	1
108300	10.684100	0
108500	10.723446	0
108700	10.762864	0
108900	10.802354	0
109100	10.841917	0
109300	10.881552	0
109500	10.921259	0
109700	10.961039	0
109900	11.000891	5
110100	11.040816	0
110300	11.080812	1
110500	11.120881	0
110700	11.161022	0
110900	11.201236	0
111100	11.241522	1
111300	11.281880	0
111500	11.322311	0
111700	11.362814	0
111900	11.403389	0
112100	11.444036	0
112300	11.484756	1
112500	11.525548	0
112700	11.566413	0
112900	11.607350	0
113100	11.648359	2
113300	11.689440	0
113500	11.730594	1
113700	11.771820	0
113900	11.813118	0
114100	11.854489	0
114300	11.895932	1
114500	11.937447	5
114700	11.979035	6385
114900	12.020695	18759
115100	12.062427	1
115300	12.104231	1
115500	12.146108	2
115700	12.188057	0
115900	12.230079	0
116100	12.272173	1
116300	12.314339	0
116500	12.356577	2
116700	12.398888	0
116900	12.441271	0
117100	12.483726	1
117300	12.526254	2
117500	12.568854	1
117700	12.611526	0
117900	12.654271	1
118100	12.697088	2
118300	12.739977	1
118500	12.782939	1
118700	12.825973	1
118900	12.869079	0
119100	12.912258	2
119300	12.955509	8
119500	12.998832	45280
119700	13.042227	193
119900	13.085695	1
120100	13.129235	3
120300	13.172848	2
120500	13.216532	1
120700	13.260289	2
120900	13.304119	1
121100	13.348020	1
121300	13.391994	1
121500	13.436041	1
121700	13.480159	0
121900	13.524350	6
122100	13.568614	7
122300	13.612949	1
122500	13.657357	1
122700	13.701837	1
122900	13.746390	0
123100	13.791015	1
123300	13.835712	0
123500	13.880481	0
123700	13.925323	3
123900	13.970237	4
124100	14.015224	8238
124300	14.060282	14
124500	14.105414	1
124700	14.150617	2
124900	14.195893	4
125100	14.241241	0
125300	14.286661	2
125500	14.332154	0
125700	14.377718	0
125900	14.423356	0
126100	14.469065	0
126300	14.514847	1
126500	14.560701	2
126700	14.606628	17
126900	14.652627	2
127100	14.698698	2
127300	14.744841	1
127500	14.791057	0
127700	14.837345	0
127900	14.883706	0
128100	14.930139	1
128300	14.976644	2
128500	15.023221	6600
128700	15.069871	71
128900	15.116593	7
129100	15.163387	0
129300	15.210254	2
129500	15.257192	2
129700	15.304204	2
129900	15.351287	0
130100	15.398443	3
130300	15.445671	1
130500	15.492972	4
130700	15.540345	2
130900	15.587790	1
131100	15.635307	9
131300	15.682897	3
131500	15.730559	4
131700	15.778294	2
131900	15.826100	0
132100	15.873979	1
132300	15.921931	18
132500	15.969954	15646
132700	16.018050	111509
132900	16.066219	7
133100	16.114459	3
133300	16.162772	2
133500	16.211158	1
133700	16.259615	5
133900	16.308145	4
134100	16.356747	1
134300	16.405422	2
134500	16.454169	0
134700	16.502988	1
134900	16.551879	0
135100	16.600843	0
135300	16.649879	1
135500	16.698987	2
135700	16.748168	0
135900	16.797421	1
136100	16.846747	3
136300	16.896144	5
136500	16.945614	11
136700	16.995157	70523
136900	17.044771	468
137100	17.094458	27
137300	17.144217	8
137500	17.194049	6
137700	17.243953	7
137900	17.293929	1
138100	17.343977	3
138300	17.394098	2
138500	17.444291	2
138700	17.494557	2
138900	17.544895	1
139100	17.595305	0
139300	17.645787	2
139500	17.696342	20
139700	17.746969	3
139900	17.797668	1
140100	17.848440	1
140300	17.899284	0
140500	17.950200	0
140700	18.001189	269
140900	18.052250	2
141100	18.103383	0
141300	18.154588	1
141500	18.205866	1
141700	18.257216	1
141900	18.308639	0
142100	18.360134	2
142300	18.411701	1
142500	18.463340	2
142700	18.515052	0
142900	18.566836	1
143100	18.618693	0
143300	18.670621	0
143500	18.722622	0
143700	18.774696	2
143900	18.826841	3
144100	18.879059	0
144300	18.931350	1
144500	18.983712	3716
144700	19.036147	463
144900	19.088654	2
145100	19.141234	0
145300	19.193886	2
145500	19.246610	0
145700	19.299406	0
145900	19.352275	0
146100	19.405216	0
146300	19.458230	0
146500	19.511315	1
146700	19.564474	0
146900	19.617704	2
147100	19.671007	0
147300	19.724382	1
147500	19.777829	0
147700	19.831349	0
147900	19.884941	0
148100	19.938605	0
148300	19.992341	0
148500	20.046150	0
148700	20.100032	1
148900	20.153985	0
149100	20.208011	0
149300	20.262109	1
149500	20.316280	0
149700	20.370522	0
149900	20.424838	0
150100	20.479225	0
150300	20.533685	0
150500	20.588217	0
150700	20.642821	0
150900	20.697498	0
151100	20.752247	0
151300	20.807068	0
151500	20.861962	0
151700	20.916928	0
151900	20.971966	1
152100	21.027077	1
152300	21.082259	0
152500	21.137515	0
152700	21.192842	0
152900	21.248242	0
153100	21.303714	0
153300	21.359259	0
153500	21.414876	0
153700	21.470565	0
153900	21.526326	0
154100	21.582160	0
154300	21.638066	1
154500	21.694044	1
154700	21.750095	0
154900	21.806218	0
155100	21.862413	0
155300	21.918681	0
155500	21.975021	0
155700	22.031433	1
155900	22.087918	0
156100	22.144475	0
156300	22.201104	0
156500	22.257805	1
156700	22.314579	0
156900	22.371425	0
157100	22.428344	0
157300	22.485334	1
157500	22.542398	0
157700	22.599533	0
157900	22.656741	0
158100	22.714021	1
158300	22.771373	0
158500	22.828798	0
158700	22.886295	0
158900	22.943864	1
159100	23.001506	43
159300	23.059220	0
159500	23.117006	1
159700	23.174865	0
159900	23.232795	1
160100	23.290799	1
160300	23.348874	0
160500	23.407022	1
160700	23.465242	0
160900	23.523535	1
161100	23.581899	0
161300	23.640336	1
161500	23.698846	1
161700	23.757428	1
161900	23.816082	0
162100	23.874808	4
162300	23.933607	36
162500	23.992478	74172
162700	24.051421	195
162900	24.110437	9
163100	24.169524	5
163300	24.228685	4
163500	24.287917	2
163700	24.347222	2
163900	24.406599	3
164100	24.466049	1
164300	24.525571	2
164500	24.585165	3
164700	24.644831	4
164900	24.704570	4
165100	24.764381	1
165300	24.824265	2
165500	24.884220	9
165700	24.944248	15
165900	25.004349	104411
166100	25.064521	900
166300	25.124766	63
166500	25.185084	37
166700	25.245473	14
166900	25.305935	7
167100	25.366469	3
167300	25.427076	3
167500	25.487755	6
167700	25.548506	4
167900	25.609329	3
168100	25.670225	4
168300	25.731193	3
168500	25.792234	3
168700	25.853347	0
168900	25.914532	5
169100	25.975789	60345
169300	26.037119	21954
169500	26.098521	1135
169700	26.159995	443
169900	26.221542	224
170100	26.283161	117
170300	26.344852	84
170500	26.406616	57
170700	26.468452	50
170900	26.530360	25
171100	26.592340	32
171300	26.654393	26
171500	26.716518	16
171700	26.778716	15
171900	26.840986	11
172100	26.903328	12
172300	26.965742	23
172500	27.028229	4803
172700	27.090788	82
172900	27.153419	17
173100	27.216123	13
173300	27.278899	9
173500	27.341748	6
173700	27.404668	2
173900	27.467661	4
174100	27.530726	4
174300	27.593864	5
174500	27.657074	4
174700	27.720356	3
174900	27.783711	6
175100	27.847138	1
175300	27.910637	1
175500	27.974208	82
175700	28.037852	81
175900	28.101568	4
176100	28.165357	4
176300	28.229217	1
176500	28.293150	0
176700	28.357156	2
176900	28.421233	0
177100	28.485383	1
177300	28.549606	2
177500	28.613900	1
177700	28.678267	1
177900	28.742707	1
178100	28.807218	1
178300	28.871802	2
178500	28.936458	61
178700	29.001187	1275
178900	29.065988	33
179100	29.130861	3
179300	29.195806	2
179500	29.260824	2
179700	29.325914	0
179900	29.391077	0
180100	29.456311	2
180300	29.521618	0
180500	29.586998	1
180700	29.652450	1
180900	29.717974	2
181100	29.783570	2
181300	29.849238	3
181500	29.914979	1
181700	29.980793	95
181900	30.046678	5
182100	30.112636	0
182300	30.178666	1
182500	30.244769	1
182700	30.310944	0
182900	30.377191	2
183100	30.443510	2
183300	30.509902	1
183500	30.576366	1
183700	30.642903	0
183900	30.709511	0
184100	30.776192	4
184300	30.842946	2
184500	30.909772	1
184700	30.976670	98
184900	31.043640	2931
185100	31.110682	7
185300	31.177797	4
185500	31.244985	2
185700	31.312244	3
185900	31.379576	1
186100	31.446980	1
186300	31.514457	1
186500	31.582006	0
186700	31.649627	0
186900	31.717320	3
187100	31.785086	0
187300	31.852924	1
187500	31.920835	3
187700	31.988817	2871
187900	32.056872	28
188100	32.125000	1
188300	32.193199	0
188500	32.261471	0
188700	32.329816	0
188900	32.398232	0
189100	32.466721	0
189300	32.535282	1
189500	32.603916	1
189700	32.672622	1
189900	32.741400	1
190100	32.810251	0
190300	32.879173	2
190500	32.948169	122
190700	33.017236	592
190900	33.086376	1
191100	33.155588	0
191300	33.224872	2
191500	33.294229	0
191700	33.363658	0
191900	33.433159	0
192100	33.502733	0
192300	33.572379	1
192500	33.642097	2
192700	33.711888	1
192900	33.781751	2
193100	33.851686	0
193300	33.921694	0
193500	33.991774	47
193700	34.061926	3
193900	34.132150	1
194100	34.202447	2
194300	34.272816	2
194500	34.343258	0
194700	34.413771	0
194900	34.484357	1
195100	34.555016	1
195300	34.625747	1
195500	34.696550	0
195700	34.767425	0
195900	34.838373	22
196100	34.909393	28
196300	34.980485	231589
196500	35.051649	1352
196700	35.122886	303
196900	35.194196	87
197100	35.265577	52
197300	35.337031	23
197500	35.408557	10
197700	35.480156	8
197900	35.551827	12
198100	35.623570	10
198300	35.695385	2
198500	35.767273	2
198700	35.839233	5
198900	35.911265	5
199100	35.983370	11793
199300	36.055547	132
199500	36.127796	3
199700	36.200118	7
199900	36.272512	5
200100	36.344978	2
200300	36.417517	0
200500	36.490128	3
200700	36.562811	0
200900	36.635567	0
201100	36.708394	1
201300	36.781295	2
201500	36.854267	6
201700	36.927312	11032
201900	37.000429	68578
202100	37.073618	302
202300	37.146880	80
202500	37.220214	33
202700	37.293621	15
202900	37.367099	5
203100	37.440650	8
203300	37.514274	10
203500	37.587969	3
203700	37.661737	4
203900	37.735578	5
204100	37.809490	4
204300	37.883475	2
204500	37.957532	24
204700	38.031662	3088
204900	38.105864	7
205100	38.180138	3
205300	38.254484	2
205500	38.328903	1
205700	38.403394	2
205900	38.477958	1
206100	38.552593	3
206300	38.627301	1
206500	38.702082	0
206700	38.776935	1
206900	38.851860	1
207100	38.926857	1
207300	39.001926	1777
207500	39.077068	480
207700	39.152283	16
207900	39.227569	6
