# Binning: 200 channels
# Deadtime Correction: on
Channel	m/z	Intensity
100	0.000228	0
300	0.000448	359
500	0.000742	7
700	0.001109	2
900	0.001550	0
1100	0.002065	0
1300	0.002653	3
1500	0.003315	2
1700	0.004051	1
1900	0.004860	0
2100	0.005743	0
2300	0.006699	0
2500	0.007729	0
2700	0.008833	0
2900	0.010010	0
3100	0.011261	0
3300	0.012585	0
3500	0.013983	0
3700	0.015455	0
3900	0.017001	0
4100	0.018620	0
4300	0.020312	0
4500	0.022078	0
4700	0.023918	0
4900	0.025832	0
5100	0.027819	0
5300	0.029880	0
5500	0.032014	0
5700	0.034222	0
5900	0.036504	0
6100	0.038859	0
6300	0.041288	0
6500	0.043790	0
6700	0.046366	0
6900	0.049016	0
7100	0.051740	0
7300	0.054537	0
7500	0.057407	0
7700	0.060352	0
7900	0.063369	0
8100	0.066461	1
8300	0.069626	0
8500	0.072865	0
8700	0.076177	0
8900	0.079563	0
9100	0.083023	0
9300	0.086556	0
9500	0.090163	0
9700	0.093843	0
9900	0.097598	0
10100	0.101425	0
10300	0.105327	0
10500	0.109302	0
10700	0.113350	0
10900	0.117473	0
11100	0.121668	0
11300	0.125938	0
11500	0.130281	0
11700	0.134698	0
11900	0.139188	0
12100	0.143752	0
12300	0.148390	0
12500	0.153101	0
12700	0.157886	0
12900	0.162744	0
13100	0.167677	0
13300	0.172682	0
13500	0.177762	0
13700	0.182915	0
13900	0.188141	0
14100	0.193442	0
14300	0.198816	0
14500	0.204263	0
14700	0.209784	0
14900	0.215379	0
15100	0.221047	0
15300	0.226789	0
15500	0.232605	0
15700	0.238494	0
15900	0.244457	0
16100	0.250494	0
16300	0.256604	0
16500	0.262787	0
16700	0.269045	0
16900	0.275376	0
17100	0.281780	0
17300	0.288259	0
17500	0.294811	0
17700	0.301436	0
17900	0.308135	0
18100	0.314908	0
18300	0.321754	0
18500	0.328674	0
18700	0.335668	0
18900	0.342735	0
19100	0.349876	0
19300	0.357091	0
19500	0.364379	0
19700	0.371741	0
19900	0.379176	0
20100	0.386685	0
20300	0.394268	0
20500	0.401924	0
20700	0.409654	0
20900	0.417457	0
21100	0.425334	0
21300	0.433285	0
21500	0.441309	0
21700	0.449407	0
21900	0.457579	0
22100	0.465824	0
22300	0.474143	0
22500	0.482536	0
22700	0.491002	0
22900	0.499542	0
23100	0.508155	0
23300	0.516842	0
23500	0.525603	0
23700	0.534437	0
23900	0.543345	0
24100	0.552326	0
24300	0.561381	0
24500	0.570510	0
24700	0.579713	0
24900	0.588989	0
25100	0.598338	0
25300	0.607761	0
25500	0.617258	0
25700	0.626829	0
25900	0.636473	0
26100	0.646191	0
26300	0.655982	0
26500	0.665847	0
26700	0.675786	0
26900	0.685798	0
27100	0.695884	0
27300	0.706043	0
27500	0.716276	0
27700	0.726583	0
27900	0.736964	0
28100	0.747418	0
28300	0.757945	0
28500	0.768547	0
28700	0.779221	0
28900	0.789970	0
29100	0.800792	0
29300	0.811688	0
29500	0.822657	0
29700	0.833700	0
29900	0.844817	0
30100	0.856007	0
30300	0.867271	0
30500	0.878608	0
30700	0.890020	2
30900	0.901504	0
31100	0.913063	0
31300	0.924695	0
31500	0.936400	3
31700	0.948180	2
31900	0.960032	6
32100	0.971959	29
32300	0.983959	60
32500	0.996033	22
32700	1.008180	1180930
32900	1.020401	365
33100	1.032696	37
33300	1.045064	39
33500	1.057506	25
33700	1.070022	20
33900	1.082611	17
34100	1.095273	17
34300	1.108010	7
34500	1.120820	17
34700	1.133703	9
34900	1.146661	4
35100	1.159692	3
35300	1.172796	5
35500	1.185974	1
35700	1.199226	1
35900	1.212551	2
36100	1.225950	0
36300	1.239423	2
36500	1.252969	1
36700	1.266589	1
36900	1.280283	0
37100	1.294050	0
37300	1.307891	2
37500	1.321805	1
37700	1.335793	0
37900	1.349855	0
38100	1.363990	0
38300	1.378199	0
38500	1.392481	2
38700	1.406837	0
38900	1.421267	0
39100	1.435770	0
39300	1.450347	0
39500	1.464998	0
39700	1.479722	0
39900	1.494520	0
40100	1.509392	0
40300	1.524337	0
40500	1.539356	0
40700	1.554448	0
40900	1.569614	0
41100	1.584854	0
41300	1.600167	0
41500	1.615554	0
41700	1.631014	0
41900	1.646548	1
42100	1.662156	0
42300	1.677838	1
42500	1.693593	0
42700	1.709421	0
42900	1.725323	0
43100	1.741299	0
43300	1.757349	1
43500	1.773472	0
43700	1.789669	1
43900	1.805939	0
44100	1.822283	1
44300	1.838701	0
44500	1.855192	0
44700	1.871757	0
44900	1.888395	0
45100	1.905107	0
45300	1.921893	0
45500	1.938753	0
45700	1.955686	1
45900	1.972692	0
46100	1.989773	0
46300	2.006926	121
46500	2.024154	14
46700	2.041455	1
46900	2.058830	1
47100	2.076278	0
47300	2.093800	1
47500	2.111396	0
47700	2.129065	0
47900	2.146808	0
48100	2.164624	0
48300	2.182515	0
48500	2.200478	0
48700	2.218516	1
48900	2.236627	0
49100	2.254811	0
49300	2.273070	0
49500	2.291402	0
49700	2.309807	0
49900	2.328286	0
50100	2.346839	0
50300	2.365465	1
50500	2.384165	0
50700	2.402939	0
50900	2.421786	0
51100	2.440707	0
51300	2.459702	0
51500	2.478770	0
51700	2.497911	0
51900	2.517127	0
52100	2.536416	0
52300	2.555778	0
52500	2.575215	0
52700	2.594725	0
52900	2.614308	0
53100	2.633965	0
53300	2.653696	0
53500	2.673500	0
53700	2.693378	0
53900	2.713330	0
54100	2.733355	0
54300	2.753454	0
54500	2.773627	0
54700	2.793873	0
54900	2.814193	0
55100	2.834586	0
55300	2.855053	0
55500	2.875594	0
55700	2.896208	0
55900	2.916896	0
56100	2.937657	0
56300	2.958492	0
56500	2.979401	0
56700	3.000384	0
56900	3.021440	0
57100	3.042569	0
57300	3.063772	0
57500	3.085049	0
57700	3.106400	0
57900	3.127824	0
58100	3.149322	0
58300	3.170893	0
58500	3.192538	0
58700	3.214257	0
58900	3.236049	0
59100	3.257915	2
59300	3.279854	0
59500	3.301867	0
59700	3.323954	0
59900	3.346115	0
60100	3.368349	0
60300	3.390656	0
60500	3.413038	0
60700	3.435492	0
60900	3.458021	0
61100	3.480623	0
61300	3.503299	0
61500	3.526048	0
61700	3.548871	0
61900	3.571768	0
62100	3.594738	0
62300	3.617782	0
62500	3.640899	0
62700	3.664091	0
62900	3.687355	0
63100	3.710694	4
63300	3.734106	0
63500	3.757591	0
63700	3.781151	0
63900	3.804784	0
64100	3.828490	0
64300	3.852270	0
64500	3.876124	0
64700	3.900051	0
64900	3.924052	0
65100	3.948127	0
65300	3.972275	0
65500	3.996497	0
65700	4.020793	1
65900	4.045162	0
66100	4.069604	0
66300	4.094121	1
66500	4.118711	0
66700	4.143374	0
66900	4.168112	0
67100	4.192923	0
67300	4.217807	0
67500	4.242765	0
67700	4.267797	0
67900	4.292902	0
68100	4.318081	0
68300	4.343334	0
68500	4.368660	0
68700	4.394060	0
68900	4.419534	0
69100	4.445081	0
69300	4.470702	0
69500	4.496396	0
69700	4.522164	0
69900	4.548006	0
70100	4.573921	0
70300	4.599910	0
70500	4.625972	0
70700	4.652108	0
70900	4.678318	0
71100	4.704602	0
71300	4.730959	0
71500	4.757389	0
71700	4.783893	0
71900	4.810471	0
72100	4.837123	0
72300	4.863848	0
72500	4.890647	0
72700	4.917519	0
72900	4.944465	0
73100	4.971485	0
73300	4.998578	0
73500	5.025745	0
73700	5.052985	0
73900	5.080300	0
74100	5.107687	0
74300	5.135149	1
74500	5.162684	0
74700	5.190292	1
74900	5.217975	0
75100	5.245730	0
75300	5.273560	0
75500	5.301463	0
75700	5.329440	0
75900	5.357490	0
76100	5.385614	1
76300	5.413812	0
76500	5.442083	0
76700	5.470428	0
76900	5.498846	0
77100	5.527339	0
77300	5.555904	0
77500	5.584544	0
77700	5.613257	0
77900	5.642043	0
78100	5.670904	0
78300	5.699838	0
78500	5.728845	1
78700	5.757926	0
78900	5.787081	0
79100	5.816309	0
79300	5.845611	0
79500	5.874987	0
79700	5.904436	0
79900	5.933959	0
80100	5.963556	0
80300	5.993226	0
80500	6.022970	1
80700	6.052787	0
80900	6.082678	0
81100	6.112643	0
81300	6.142681	0
81500	6.172793	0
81700	6.202978	0
81900	6.233237	1
82100	6.263570	0
82300	6.293976	0
82500	6.324456	0
82700	6.355010	0
82900	6.385637	0
83100	6.416338	0
83300	6.447113	1
83500	6.477961	0
83700	6.508883	0
83900	6.539878	0
84100	6.570947	0
84300	6.602090	1
84500	6.633306	1
84700	6.664596	0
84900	6.695959	0
85100	6.727396	0
85300	6.758907	0
85500	6.790492	0
85700	6.822150	2
85900	6.853881	0
86100	6.885686	0
86300	6.917565	0
86500	6.949518	0
86700	6.981544	0
86900	7.013644	0
87100	7.045817	0
87300	7.078064	1
87500	7.110385	0
87700	7.142779	0
87900	7.175247	1
88100	7.207788	0
88300	7.240404	0
88500	7.273092	0
88700	7.305855	0
88900	7.338691	0
89100	7.371600	0
89300	7.404584	0
89500	7.437641	0
89700	7.470771	0
89900	7.503975	0
90100	7.537253	0
90300	7.570604	0
90500	7.604029	0
90700	7.637528	0
90900	7.671100	0
91100	7.704746	0
91300	7.738466	0
91500	7.772259	0
91700	7.806125	0
91900	7.840066	0
92100	7.874080	0
92300	7.908168	0
92500	7.942329	0
92700	7.976564	1
92900	8.010872	1
93100	8.045254	0
93300	8.079710	0
93500	8.114239	0
93700	8.148842	0
93900	8.183519	0
94100	8.218269	0
94300	8.253093	0
94500	8.287991	0
94700	8.322962	0
94900	8.358007	0
95100	8.393125	0
95300	8.428317	0
95500	8.463583	0
95700	8.498922	0
95900	8.534335	0
96100	8.569821	0
96300	8.605381	0
96500	8.641015	0
96700	8.676723	0
96900	8.712504	0
97100	8.748358	0
97300	8.784286	0
97500	8.820288	0
97700	8.856364	0
97900	8.892513	0
98100	8.928736	0
98300	8.965032	0
98500	9.001402	0
98700	9.037846	0
98900	9.074363	0
99100	9.110954	0
99300	9.147618	0
99500	9.184357	1
99700	9.221168	0
99900	9.258054	0
100100	9.295013	0
100300	9.332045	0
100500	9.369152	0
100700	9.406332	0
100900	9.443585	0
101100	9.480912	0
101300	9.518313	0
101500	9.555787	0
101700	9.593335	0
101900	9.630957	0
102100	9.668652	0
102300	9.706421	0
102500	9.744264	0
102700	9.782180	0
102900	9.820169	0
103100	9.858233	0
103300	9.896370	0
103500	9.934581	0
103700	9.972865	0
103900	10.011223	1
104100	10.049654	0
104300	10.088159	0
104500	10.126738	0
104700	10.165390	0
104900	10.204116	0
105100	10.242916	0
105300	10.281789	0
105500	10.320736	0
105700	10.359757	0
105900	10.398851	0
106100	10.438019	0
106300	10.477260	0
106500	10.516575	0
106700	10.555964	0
106900	10.595426	0
107100	10.634962	0
107300	10.674571	0
107500	10.714254	0
107700	10.754011	0
107900	10.793842	0
108100	10.833746	1
108300	10.873723	0
108500	10.913774	0
108700	10.953899	0
108900	10.994098	3
109100	11.034370	0
109300	11.074716	0
109500	11.115135	0
109700	11.155628	0
109900	11.196195	0
110100	11.236835	0
110300	11.277549	0
110500	11.318336	0
110700	11.359198	1
110900	11.400132	0
111100	11.441141	0
111300	11.482223	1
111500	11.523378	1
111700	11.564608	1
111900	11.605911	1
112100	11.647287	3
112300	11.688737	1
112500	11.730261	1
112700	11.771858	4
112900	11.813529	0
113100	11.855274	1
113300	11.897092	0
113500	11.938984	1
113700	11.980950	117745
113900	12.022989	23973
114100	12.065102	2
114300	12.107288	5
114500	12.149548	5
114700	12.191882	3
114900	12.234289	6
115100	12.276770	6
115300	12.319324	2
115500	12.361952	5
115700	12.404654	4
115900	12.447429	1
116100	12.490278	1
116300	12.533201	0
116500	12.576197	2
116700	12.619267	5
116900	12.662411	3
117100	12.705628	9
117300	12.748919	6
117500	12.792283	3
117700	12.835721	3
117900	12.879233	4
118100	12.922818	3
118300	12.966477	6
118500	13.010209	172831
118700	13.054015	44
118900	13.097895	6
119100	13.141849	9
119300	13.185876	6
119500	13.229976	16
119700	13.274151	10
119900	13.318398	9
120100	13.362720	1
120300	13.407115	5
120500	13.451584	4
120700	13.496126	6
120900	13.540742	39
121100	13.585432	6
121300	13.630195	3
121500	13.675032	2
121700	13.719943	3
121900	13.764927	2
122100	13.809984	2
122300	13.855116	1
122500	13.900321	1
122700	13.945599	2
122900	13.990952	1853
123100	14.036378	16416
123300	14.081877	1
123500	14.127450	3
123700	14.173097	3
123900	14.218817	5
124100	14.264611	1
124300	14.310479	4
124500	14.356420	1
124700	14.402435	2
124900	14.448524	1
125100	14.494686	2
125300	14.540922	3
125500	14.587231	30
125700	14.633614	5
125900	14.680071	2
126100	14.726601	1
126300	14.773205	1
126500	14.819882	1
126700	14.866633	2
126900	14.913458	0
127100	14.960357	0
127300	15.007329	14117
127500	15.054374	828
127700	15.101493	15
127900	15.148686	6
128100	15.195953	1
128300	15.243293	6
128500	15.290707	4
128700	15.338194	4
128900	15.385755	2
129100	15.433390	3
129300	15.481098	3
129500	15.528880	1
129700	15.576735	0
129900	15.624665	14
130100	15.672667	3
130300	15.720744	2
130500	15.768894	1
130700	15.817117	2
130900	15.865415	3
131100	15.913785	4
131300	15.962230	49
131500	16.010748	362284
131700	16.059340	12
131900	16.108005	7
132100	16.156744	4
132300	16.205557	8
132500	16.254443	4
132700	16.303403	1
132900	16.352437	3
133100	16.401544	4
133300	16.450724	5
133500	16.499979	4
133700	16.549307	2
133900	16.598709	5
134100	16.648184	3
134300	16.697733	0
134500	16.747355	3
134700	16.797051	1
134900	16.846821	3
135100	16.896664	1
135300	16.946581	3
135500	16.996572	161497
135700	17.046636	112
135900	17.096774	6
136100	17.146986	4
136300	17.197271	6
136500	17.247630	7
136700	17.298062	7
136900	17.348568	3
137100	17.399148	6
137300	17.449801	8
137500	17.500528	4
137700	17.551328	3
137900	17.602202	0
138100	17.653150	2
138300	17.704172	46
138500	17.755267	1
138700	17.806435	1
138900	17.857678	2
139100	17.908993	3
139300	17.960383	4
139500	18.011846	776
139700	18.063383	2
139900	18.114993	1
140100	18.166677	0
140300	18.218435	1
140500	18.270266	1
140700	18.322171	0
140900	18.374150	0
141100	18.426202	0
141300	18.478327	1
141500	18.530527	2
141700	18.582800	0
141900	18.635146	3
142100	18.687567	0
142300	18.740061	3
142500	18.792628	1
142700	18.845269	0
142900	18.897984	1
143100	18.950772	2
143300	19.003634	22924
143500	19.056570	21
143700	19.109579	3
143900	19.162662	1
144100	19.215819	3
144300	19.269049	0
144500	19.322353	0
144700	19.375730	1
144900	19.429181	1
145100	19.482706	1
145300	19.536304	0
145500	19.589976	0
145700	19.643721	1
145900	19.697540	0
146100	19.751433	1
146300	19.805400	1
146500	19.859440	0
146700	19.913553	0
146900	19.967740	2
147100	20.022001	0
147300	20.076336	0
147500	20.130744	1
147700	20.185226	0
147900	20.239781	0
148100	20.294410	1
148300	20.349113	1
148500	20.403889	0
148700	20.458739	1
148900	20.513662	0
149100	20.568660	0
149300	20.623730	0
149500	20.678875	0
149700	20.734093	1
149900	20.789384	0
150100	20.844750	0
150300	20.900189	0
150500	20.955701	0
150700	21.011287	1
150900	21.066947	0
151100	21.122680	0
151300	21.178487	0
151500	21.234368	1
151700	21.290322	0
151900	21.346350	0
152100	21.402452	0
152300	21.458627	0
152500	21.514876	0
152700	21.571198	0
152900	21.627594	0
153100	21.684064	1
153300	21.740607	0
153500	21.797224	0
153700	21.853914	0
153900	21.910678	0
154100	21.967516	1
154300	22.024428	2
154500	22.081413	1
154700	22.138471	0
154900	22.195603	0
155100	22.252809	0
155300	22.310089	3
155500	22.367442	0
155700	22.424869	1
155900	22.482369	0
156100	22.539943	0
156300	22.597591	0
156500	22.655312	1
156700	22.713107	0
156900	22.770975	0
157100	22.828918	0
157300	22.886933	1
157500	22.945023	1
157700	23.003186	364
157900	23.061422	3
158100	23.119733	3
158300	23.178117	1
158500	23.236574	3
158700	23.295105	1
158900	23.353710	0
159100	23.412388	1
159300	23.471140	1
159500	23.529966	0
159700	23.588865	0
159900	23.647838	1
160100	23.706885	2
160300	23.766005	2
160500	23.825199	1
160700	23.884466	3
160900	23.943807	963
161100	24.003222	518375
161300	24.062710	149
161500	24.122272	28
161700	24.181907	27
161900	24.241616	29
162100	24.301399	22
162300	24.361256	19
162500	24.421186	27
162700	24.481189	21
162900	24.541266	23
163100	24.601417	27
163300	24.661642	19
163500	24.721940	13
163700	24.782312	24
163900	24.842757	28
164100	24.903276	23
164300	24.963869	195
164500	25.024535	764674
164700	25.085275	54
164900	25.146088	11
165100	25.206976	13
165300	25.267936	19
165500	25.328971	29
165700	25.390079	28
165900	25.451260	22
166100	25.512516	32
166300	25.573845	15
166500	25.635247	15
166700	25.696723	18
166900	25.758273	15
167100	25.819896	12
167300	25.881593	11
167500	25.943364	12
167700	26.005208	135176
167900	26.067126	334
168100	26.129118	57
168300	26.191183	25
168500	26.253322	18
168700	26.315534	10
168900	26.377820	7
169100	26.440180	6
169300	26.502613	5
169500	26.565120	7
169700	26.627700	5
169900	26.690354	3
170100	26.753082	4
170300	26.815884	4
170500	26.878759	6
170700	26.941707	4
170900	27.004729	6164
171100	27.067825	78
171300	27.130995	3
171500	27.194238	5
171700	27.257555	4
171900	27.320945	4
172100	27.384409	1
172300	27.447947	3
172500	27.511558	1
172700	27.575243	3
172900	27.639001	0
173100	27.702834	2
173300	27.766739	2
173500	27.830719	1
173700	27.894772	0
173900	27.958898	172
174100	28.023099	212
174300	28.087373	1
174500	28.151720	3
174700	28.216141	1
174900	28.280636	1
175100	28.345204	1
175300	28.409846	1
175500	28.474562	0
175700	28.539351	0
175900	28.604214	2
176100	28.669151	1
176300	28.734161	1
176500	28.799245	2
176700	28.864402	0
176900	28.929633	21
177100	28.994938	1185
177300	29.060316	7
177500	29.125768	1
177700	29.191293	1
177900	29.256892	2
178100	29.322565	2
178300	29.388312	2
178500	29.454132	0
178700	29.520025	2
178900	29.585992	2
179100	29.652033	1
179300	29.718148	3
179500	29.784336	1
179700	29.850598	2
179900	29.916933	1
180100	29.983342	212
180300	30.049825	3
180500	30.116381	0
180700	30.183011	2
180900	30.249714	2
181100	30.316492	1
181300	30.383342	2
181500	30.450267	0
181700	30.517265	2
181900	30.584336	1
182100	30.651482	1
182300	30.718701	1
182500	30.785993	1
182700	30.853359	2
182900	30.920799	2
183100	30.988312	1513
183300	31.055899	521
183500	31.123560	2
183700	31.191294	2
183900	31.259102	0
184100	31.326984	2
184300	31.394939	2
184500	31.462968	1
184700	31.531070	1
184900	31.599246	1
185100	31.667496	3
185300	31.735819	0
185500	31.804216	1
185700	31.872686	0
185900	31.941230	3209
186100	32.009848	5354
186300	32.078540	2
186500	32.147305	0
186700	32.216143	1
186900	32.285055	0
187100	32.354041	0
187300	32.423101	0
187500	32.492234	0
187700	32.561441	2
187900	32.630721	0
188100	32.700075	0
188300	32.769503	2
188500	32.839004	2
188700	32.908579	1
188900	32.978227	2944
189100	33.047950	18
189300	33.117745	1
189500	33.187615	3
189700	33.257558	1
189900	33.327574	1
190100	33.397665	1
190300	33.467829	2
190500	33.538066	3
190700	33.608377	1
190900	33.678762	1
191100	33.749220	0
191300	33.819752	1
191500	33.890358	2
191700	33.961037	174
191900	34.031790	31
192100	34.102617	0
192300	34.173517	0
192500	34.244491	1
192700	34.315538	0
192900	34.386659	1
193100	34.457854	1
193300	34.529122	0
193500	34.600464	0
193700	34.671879	3
193900	34.743368	5
194100	34.814931	2
194300	34.886568	14
194500	34.958278	883632
194700	35.030061	3555
194900	35.101919	199
195100	35.173849	69
195300	35.245854	54
195500	35.317932	35
195700	35.390084	26
195900	35.462309	17
196100	35.534608	9
196300	35.606981	6
196500	35.679427	9
196700	35.751947	9
196900	35.824541	6
197100	35.897208	5
197300	35.969948	31420
197500	36.042763	4151
197700	36.115651	3
197900	36.188612	6
198100	36.261648	8
198300	36.334757	6
198500	36.407939	2
198700	36.481195	3
198900	36.554525	0
199100	36.627928	2
199300	36.701405	4
199500	36.774956	2
199700	36.848580	0
199900	36.922278	2319
200100	36.996050	300598
200300	37.069895	150
200500	37.143814	39
200700	37.217806	17
200900	37.291872	7
201100	37.366012	6
201300	37.440225	14
201500	37.514512	2
201700	37.588872	9
201900	37.663307	6
202100	37.737814	7
202300	37.812396	5
202500	37.887051	3
202700	37.961779	237
202900	38.036582	7965
203100	38.111457	7
203300	38.186407	2
203500	38.261430	3
203700	38.336527	4
203900	38.411697	1
204100	38.486941	3
204300	38.562259	8
204500	38.637650	1
204700	38.713115	2
204900	38.788654	3
205100	38.864266	0
205300	38.939952	7
205500	39.015711	6304
205700	39.091544	12
205900	39.167451	4
206100	39.243431	5
206300	39.319485	4
206500	39.395612	3
206700	39.471813	3
206900	39.548088	7
207100	39.624437	5
207300	39.700859	2
207500	39.777354	2
207700	39.853923	3
