# Binning: 200 channels
# Deadtime Correction: on
Channel	m/z	Intensity
100	0.000246	1
300	0.000473	63
500	0.000774	1
700	0.001149	0
900	0.001597	0
1100	0.002119	0
1300	0.002714	3
1500	0.003383	5
1700	0.004126	3
1900	0.004942	0
2100	0.005832	0
2300	0.006795	0
2500	0.007832	0
2700	0.008943	0
2900	0.010127	0
3100	0.011385	0
3300	0.012717	0
3500	0.014122	0
3700	0.015601	0
3900	0.017153	0
4100	0.018780	0
4300	0.020479	0
4500	0.022253	0
4700	0.024100	1
4900	0.026020	0
5100	0.028014	0
5300	0.030082	0
5500	0.032224	0
5700	0.034439	0
5900	0.036728	0
6100	0.039090	0
6300	0.041526	0
6500	0.044036	0
6700	0.046619	0
6900	0.049276	0
7100	0.052006	0
7300	0.054810	0
7500	0.057688	0
7700	0.060639	0
7900	0.063664	0
8100	0.066763	0
8300	0.069935	0
8500	0.073181	0
8700	0.076501	0
8900	0.079894	0
9100	0.083360	0
9300	0.086901	1
9500	0.090515	0
9700	0.094202	0
9900	0.097964	0
10100	0.101798	0
10300	0.105707	0
10500	0.109689	0
10700	0.113745	0
10900	0.117874	0
11100	0.122077	0
11300	0.126354	0
11500	0.130704	0
11700	0.135128	0
11900	0.139625	1
12100	0.144197	0
12300	0.148841	0
12500	0.153560	0
12700	0.158352	0
12900	0.163217	0
13100	0.168156	0
13300	0.173169	0
13500	0.178256	0
13700	0.183416	0
13900	0.188650	0
14100	0.193957	0
14300	0.199338	0
14500	0.204793	0
14700	0.210321	0
14900	0.215923	0
15100	0.221598	0
15300	0.227347	0
15500	0.233170	0
15700	0.239066	0
15900	0.245036	0
16100	0.251080	0
16300	0.257197	0
16500	0.263388	0
16700	0.269653	0
16900	0.275991	0
17100	0.282403	0
17300	0.288888	0
17500	0.295447	0
17700	0.302080	0
17900	0.308786	0
18100	0.315566	0
18300	0.322419	0
18500	0.329346	0
18700	0.336347	0
18900	0.343421	0
19100	0.350569	0
19300	0.357791	0
19500	0.365086	0
19700	0.372455	0
19900	0.379898	0
20100	0.387414	0
20300	0.395004	0
20500	0.402667	0
20700	0.410404	0
20900	0.418215	0
21100	0.426099	0
21300	0.434057	0
21500	0.442088	0
21700	0.450193	0
21900	0.458372	0
22100	0.466624	0
22300	0.474950	0
22500	0.483350	0
22700	0.491823	0
22900	0.500370	0
23100	0.508991	0
23300	0.517685	0
23500	0.526453	0
23700	0.535294	0
23900	0.544209	0
24100	0.553198	0
24300	0.562260	0
24500	0.571396	0
24700	0.580605	0
24900	0.589888	0
25100	0.599245	0
25300	0.608675	0
25500	0.618180	0
25700	0.627757	0
25900	0.637408	0
26100	0.647133	0
26300	0.656932	0
26500	0.666804	0
26700	0.676750	0
26900	0.686769	0
27100	0.696862	0
27300	0.707029	0
27500	0.717269	0
27700	0.727583	0
27900	0.737970	0
28100	0.748431	0
28300	0.758966	0
28500	0.769575	0
28700	0.780257	0
28900	0.791012	0
29100	0.801842	0
29300	0.812744	0
29500	0.823721	0
29700	0.834771	0
29900	0.845895	0
30100	0.857092	0
30300	0.868363	0
30500	0.879708	0
30700	0.891126	0
30900	0.902618	0
31100	0.914183	0
31300	0.925823	0
31500	0.937535	0
31700	0.949322	0
31900	0.961182	0
32100	0.973115	5
32300	0.985123	35
32500	0.997204	23
32700	1.009358	301896
32900	1.021586	231
33100	1.033888	35
33300	1.046263	11
33500	1.058712	4
33700	1.071235	9
33900	1.083831	5
34100	1.096501	5
34300	1.109245	1
34500	1.122062	2
34700	1.134953	3
34900	1.147917	1
35100	1.160955	0
35300	1.174067	0
35500	1.187252	0
35700	1.200511	1
35900	1.213843	0
36100	1.227249	0
36300	1.240729	1
36500	1.254283	0
36700	1.267910	0
36900	1.281610	0
37100	1.295385	0
37300	1.309232	0
37500	1.323154	0
37700	1.337149	0
37900	1.351218	1
38100	1.365360	0
38300	1.379576	0
38500	1.393866	0
38700	1.408229	0
38900	1.422666	0
39100	1.437177	0
39300	1.451761	0
39500	1.466419	0
39700	1.481150	0
39900	1.495955	0
40100	1.510834	0
40300	1.525786	0
40500	1.540812	0
40700	1.555911	0
40900	1.571084	0
41100	1.586331	0
41300	1.601652	0
41500	1.617046	0
41700	1.632513	0
41900	1.648055	0
42100	1.663669	0
42300	1.679358	1
42500	1.695120	0
42700	1.710956	0
42900	1.726865	0
43100	1.742848	0
43300	1.758905	0
43500	1.775035	0
43700	1.791239	0
43900	1.807517	1
44100	1.823868	0
44300	1.840293	0
44500	1.856791	0
44700	1.873363	0
44900	1.890009	0
45100	1.906728	0
45300	1.923521	0
45500	1.940387	0
45700	1.957328	0
45900	1.974341	0
46100	1.991429	0
46300	2.008590	37
46500	2.025824	1
46700	2.043133	0
46900	2.060515	0
47100	2.077970	0
47300	2.095499	0
47500	2.113102	0
47700	2.130779	0
47900	2.148529	0
48100	2.166352	0
48300	2.184249	0
48500	2.202220	0
48700	2.220265	0
48900	2.238383	0
49100	2.256575	0
49300	2.274840	0
49500	2.293179	0
49700	2.311592	0
49900	2.330078	0
50100	2.348638	0
50300	2.367272	0
50500	2.385979	0
50700	2.404760	0
50900	2.423614	0
51100	2.442542	0
51300	2.461544	0
51500	2.480619	0
51700	2.499768	0
51900	2.518990	0
52100	2.538287	0
52300	2.557656	0
52500	2.577100	0
52700	2.596617	0
52900	2.616208	0
53100	2.635872	0
53300	2.655610	0
53500	2.675421	0
53700	2.695306	0
53900	2.715265	0
54100	2.735298	0
54300	2.755404	0
54500	2.775583	0
54700	2.795837	0
54900	2.816164	0
55100	2.836564	0
55300	2.857038	0
55500	2.877586	0
55700	2.898207	1
55900	2.918902	1
56100	2.939671	1
56300	2.960513	0
56500	2.981429	0
56700	3.002419	0
56900	3.023482	0
57100	3.044619	0
57300	3.065829	1
57500	3.087113	0
57700	3.108471	0
57900	3.129902	0
58100	3.151407	0
58300	3.172986	0
58500	3.194638	0
58700	3.216364	0
58900	3.238163	0
59100	3.260036	0
59300	3.281983	0
59500	3.304003	0
59700	3.326097	0
59900	3.348265	0
60100	3.370506	0
60300	3.392821	0
60500	3.415209	0
60700	3.437671	0
60900	3.460207	0
61100	3.482816	0
61300	3.505499	0
61500	3.528255	0
61700	3.551086	0
61900	3.573989	0
62100	3.596967	0
62300	3.620018	0
62500	3.643143	0
62700	3.666341	0
62900	3.689613	0
63100	3.712958	0
63300	3.736377	0
63500	3.759870	1
63700	3.783437	0
63900	3.807077	0
64100	3.830790	0
64300	3.854578	0
64500	3.878439	0
64700	3.902373	0
64900	3.926381	0
65100	3.950463	0
65300	3.974619	0
65500	3.998848	0
65700	4.023150	0
65900	4.047527	0
66100	4.071977	0
66300	4.096500	0
66500	4.121097	0
66700	4.145768	0
66900	4.170513	0
67100	4.195331	0
67300	4.220222	0
67500	4.245188	0
67700	4.270226	0
67900	4.295339	0
68100	4.320525	0
68300	4.345785	0
68500	4.371118	0
68700	4.396525	0
68900	4.422006	0
69100	4.447560	0
69300	4.473188	0
69500	4.498890	0
69700	4.524665	0
69900	4.550514	0
70100	4.576436	0
70300	4.602432	0
70500	4.628502	0
70700	4.654645	0
70900	4.680862	0
71100	4.707153	0
71300	4.733517	0
71500	4.759955	0
71700	4.786466	0
71900	4.813051	0
72100	4.839710	0
72300	4.866442	0
72500	4.893248	0
72700	4.920128	0
72900	4.947081	0
73100	4.974108	0
73300	5.001208	0
73500	5.028382	0
73700	5.055630	0
73900	5.082951	0
74100	5.110346	0
74300	5.137815	0
74500	5.165357	0
74700	5.192973	0
74900	5.220662	0
75100	5.248425	0
75300	5.276262	0
75500	5.304172	0
75700	5.332156	0
75900	5.360214	0
76100	5.388345	0
76300	5.416550	1
76500	5.444828	0
76700	5.473180	0
76900	5.501606	0
77100	5.530105	0
77300	5.558678	0
77500	5.587325	0
77700	5.616045	0
77900	5.644839	0
78100	5.673706	0
78300	5.702647	0
78500	5.731662	0
78700	5.760750	0
78900	5.789912	0
79100	5.819148	0
79300	5.848457	0
79500	5.877840	0
79700	5.907296	0
79900	5.936826	0
80100	5.966430	0
80300	5.996107	0
80500	6.025858	0
80700	6.055683	0
80900	6.085581	1
81100	6.115553	0
81300	6.145598	0
81500	6.175717	0
81700	6.205910	0
81900	6.236176	0
82100	6.266516	0
82300	6.296930	0
82500	6.327417	0
82700	6.357978	0
82900	6.388612	0
83100	6.419320	0
83300	6.450102	0
83500	6.480957	0
83700	6.511886	0
83900	6.542889	0
84100	6.573965	0
84300	6.605115	0
84500	6.636338	0
84700	6.667636	0
84900	6.699006	0
85100	6.730451	0
85300	6.761969	0
85500	6.793560	0
85700	6.825225	0
85900	6.856964	0
86100	6.888777	0
86300	6.920663	0
86500	6.952622	0
86700	6.984656	0
86900	7.016763	0
87100	7.048943	0
87300	7.081197	0
87500	7.113525	0
87700	7.145927	0
87900	7.178402	0
88100	7.210950	0
88300	7.243573	0
88500	7.276269	0
88700	7.309038	0
88900	7.341882	0
89100	7.374798	0
89300	7.407789	0
89500	7.440853	0
89700	7.473991	1
89900	7.507202	1
90100	7.540487	0
90300	7.573845	0
90500	7.607278	0
90700	7.640783	0
90900	7.674363	0
91100	7.708016	0
91300	7.741743	0
91500	7.775543	0
91700	7.809417	0
91900	7.843365	0
92100	7.877386	0
92300	7.911481	0
92500	7.945649	0
92700	7.979891	0
92900	8.014207	1
93100	8.048596	0
93300	8.083059	0
93500	8.117596	0
93700	8.152206	0
93900	8.186890	0
94100	8.221647	0
94300	8.256478	0
94500	8.291383	0
94700	8.326361	0
94900	8.361413	0
95100	8.396539	0
95300	8.431738	0
95500	8.467011	0
95700	8.502357	0
95900	8.537777	0
96100	8.573271	0
96300	8.608839	0
96500	8.644479	0
96700	8.680194	0
96900	8.715982	0
97100	8.751844	0
97300	8.787780	0
97500	8.823789	0
97700	8.859871	0
97900	8.896028	0
98100	8.932258	0
98300	8.968561	0
98500	9.004938	0
98700	9.041389	0
98900	9.077914	0
99100	9.114512	0
99300	9.151184	0
99500	9.187929	0
99700	9.224748	0
99900	9.261640	0
100100	9.298607	0
100300	9.335647	0
100500	9.372760	0
100700	9.409947	0
100900	9.447208	0
101100	9.484542	0
101300	9.521950	0
101500	9.559432	0
101700	9.596987	0
101900	9.634616	0
102100	9.672318	0
102300	9.710094	0
102500	9.747944	0
102700	9.785867	0
102900	9.823864	0
103100	9.861935	0
103300	9.900079	0
103500	9.938297	0
103700	9.976588	0
103900	10.014954	0
104100	10.053392	0
104300	10.091905	0
104500	10.130491	0
104700	10.169150	0
104900	10.207883	0
105100	10.246690	0
105300	10.285571	0
105500	10.324525	0
105700	10.363553	0
105900	10.402654	0
106100	10.441829	0
106300	10.481077	0
106500	10.520400	0
106700	10.559796	0
106900	10.599265	0
107100	10.638808	0
107300	10.678425	0
107500	10.718115	0
107700	10.757879	0
107900	10.797717	0
108100	10.837628	0
108300	10.877613	0
108500	10.917671	0
108700	10.957803	0
108900	10.998009	2
109100	11.038288	0
109300	11.078641	0
109500	11.119068	0
109700	11.159568	0
109900	11.200142	0
110100	11.240790	0
110300	11.281511	0
110500	11.322305	0
110700	11.363174	1
110900	11.404116	1
111100	11.445131	0
111300	11.486221	0
111500	11.527383	0
111700	11.568620	0
111900	11.609930	0
112100	11.651314	1
112300	11.692771	0
112500	11.734302	0
112700	11.775907	0
112900	11.817585	0
113100	11.859337	0
113300	11.901162	1
113500	11.943061	6
113700	11.985034	41411
113900	12.027080	346
114100	12.069200	1
114300	12.111394	0
114500	12.153661	1
114700	12.196002	1
114900	12.238417	0
115100	12.280905	3
115300	12.323466	0
115500	12.366102	1
115700	12.408811	0
115900	12.451593	0
116100	12.494450	3
116300	12.537379	1
116500	12.580383	0
116700	12.623460	1
116900	12.666611	2
117100	12.709835	1
117300	12.753133	1
117500	12.796505	2
117700	12.839950	0
117900	12.883469	0
118100	12.927061	2
118300	12.970727	6
118500	13.014467	45680
118700	13.058281	6
118900	13.102167	1
119100	13.146128	1
119300	13.190162	2
119500	13.234270	1
119700	13.278452	1
119900	13.322707	3
120100	13.367036	0
120300	13.411438	3
120500	13.455914	3
120700	13.500463	1
120900	13.545087	9
121100	13.589784	3
121300	13.634554	0
121500	13.679398	2
121700	13.724316	0
121900	13.769307	1
122100	13.814372	0
122300	13.859511	2
122500	13.904723	0
122700	13.950009	1
122900	13.995369	3685
123100	14.040802	698
123300	14.086308	1
123500	14.131889	2
123700	14.177543	1
123900	14.223270	3
124100	14.269072	0
124300	14.314946	3
124500	14.360895	1
124700	14.406917	0
124900	14.453013	0
125100	14.499182	2
125300	14.545425	1
125500	14.591742	9
125700	14.638132	0
125900	14.684596	0
126100	14.731133	1
126300	14.777744	0
126500	14.824429	0
126700	14.871188	1
126900	14.918020	0
127100	14.964925	0
127300	15.011904	3418
127500	15.058957	56
127700	15.106084	8
127900	15.153284	0
128100	15.200558	0
128300	15.247905	1
128500	15.295326	2
128700	15.342821	2
128900	15.390389	0
129100	15.438031	0
129300	15.485746	1
129500	15.533535	0
129700	15.581398	0
129900	15.629335	4
130100	15.677345	3
130300	15.725428	0
130500	15.773585	0
130700	15.821816	1
130900	15.870121	2
131100	15.918499	8
131300	15.966951	86
131500	16.015476	80844
131700	16.064075	2
131900	16.112748	3
132100	16.161494	1
132300	16.210314	1
132500	16.259207	0
132700	16.308174	0
132900	16.357215	2
133100	16.406330	0
133300	16.455518	1
133500	16.504779	2
133700	16.554114	0
133900	16.603523	2
134100	16.653006	2
134300	16.702562	1
134500	16.752192	0
134700	16.801895	0
134900	16.851672	2
135100	16.901523	3
135300	16.951447	0
135500	17.001445	38514
135700	17.051516	92
135900	17.101661	5
136100	17.151880	1
136300	17.202173	2
136500	17.252539	3
136700	17.302978	1
136900	17.353492	2
137100	17.404078	0
137300	17.454739	3
137500	17.505473	0
137700	17.556281	0
137900	17.607162	3
138100	17.658117	1
138300	17.709146	17
138500	17.760248	2
138700	17.811424	0
138900	17.862673	0
139100	17.913997	1
139300	17.965393	2
139500	18.016864	145
139700	18.068408	0
139900	18.120025	0
140100	18.171717	1
140300	18.223482	1
140500	18.275320	1
140700	18.327232	0
140900	18.379218	0
141100	18.431277	0
141300	18.483410	1
141500	18.535617	0
141700	18.587897	0
141900	18.640251	0
142100	18.692679	0
142300	18.745180	1
142500	18.797755	0
142700	18.850403	0
142900	18.903125	0
143100	18.955921	0
143300	19.008790	4613
143500	19.061733	6
143700	19.114749	0
143900	19.167839	2
144100	19.221003	2
144300	19.274241	0
144500	19.327552	0
144700	19.380936	0
144900	19.434394	0
145100	19.487926	0
145300	19.541532	0
145500	19.595211	0
145700	19.648964	0
145900	19.702790	0
146100	19.756690	0
146300	19.810664	0
146500	19.864711	0
146700	19.918832	0
146900	19.973026	1
147100	20.027295	0
147300	20.081636	0
147500	20.136052	0
147700	20.190541	0
147900	20.245103	0
148100	20.299740	0
148300	20.354450	0
148500	20.409233	0
148700	20.464090	0
148900	20.519021	0
149100	20.574025	1
149300	20.629103	0
149500	20.684255	0
149700	20.739480	0
149900	20.794779	0
150100	20.850152	0
150300	20.905598	0
150500	20.961118	0
150700	21.016711	0
150900	21.072378	0
151100	21.128119	0
151300	21.183933	0
151500	21.239821	1
151700	21.295782	0
151900	21.351818	0
152100	21.407926	0
152300	21.464109	0
152500	21.520365	0
152700	21.576694	0
152900	21.633098	0
153100	21.689575	0
153300	21.746125	0
153500	21.802749	0
153700	21.859447	0
153900	21.916218	0
154100	21.973064	0
154300	22.029982	1
154500	22.086974	0
154700	22.144040	0
154900	22.201180	1
155100	22.258393	0
155300	22.315680	0
155500	22.373040	0
155700	22.430474	0
155900	22.487982	0
156100	22.545563	0
156300	22.603218	0
156500	22.660947	2
156700	22.718749	0
156900	22.776625	0
157100	22.834574	0
157300	22.892597	0
157500	22.950694	0
157700	23.008864	136
157900	23.067108	0
158100	23.125425	0
158300	23.183816	0
158500	23.242281	0
158700	23.300820	0
158900	23.359432	2
159100	23.418117	1
159300	23.476877	1
159500	23.535710	0
159700	23.594616	0
159900	23.653596	1
160100	23.712650	0
160300	23.771777	0
160500	23.830978	0
160700	23.890253	8
160900	23.949601	301
161100	24.009023	130365
161300	24.068519	38
161500	24.128088	12
161700	24.187731	5
161900	24.247447	8
162100	24.307237	9
162300	24.367101	5
162500	24.427038	9
162700	24.487049	7
162900	24.547134	4
163100	24.607292	5
163300	24.667524	7
163500	24.727829	5
163700	24.788208	4
163900	24.848661	6
164100	24.909187	23
164300	24.969787	254
164500	25.030460	205521
164700	25.091208	90
164900	25.152028	22
165100	25.212923	7
165300	25.273891	5
165500	25.334932	9
165700	25.396048	11
165900	25.457237	5
166100	25.518499	5
166300	25.579835	6
166500	25.641245	3
166700	25.702729	3
166900	25.764286	5
167100	25.825916	0
167300	25.887621	3
167500	25.949399	3
167700	26.011250	65427
167900	26.073175	796
168100	26.135174	193
168300	26.197246	67
168500	26.259392	32
168700	26.321612	29
168900	26.383905	11
169100	26.446272	14
169300	26.508713	9
169500	26.571227	7
169700	26.633815	5
169900	26.696476	5
170100	26.759211	0
170300	26.822020	2
170500	26.884902	2
170700	26.947858	5
170900	27.010888	2261
171100	27.073991	26
171300	27.137168	7
171500	27.200418	5
171700	27.263742	1
171900	27.327140	0
172100	27.390611	1
172300	27.454156	1
172500	27.517775	1
172700	27.581467	2
172900	27.645233	1
173100	27.709072	0
173300	27.772985	1
173500	27.836972	1
173700	27.901032	1
173900	27.965166	89
174100	28.029373	43
174300	28.093655	0
174500	28.158009	1
174700	28.222438	0
174900	28.286940	0
175100	28.351516	0
175300	28.416165	3
175500	28.480888	0
175700	28.545684	0
175900	28.610555	0
176100	28.675498	0
176300	28.740516	0
176500	28.805607	1
176700	28.870771	0
176900	28.936010	11
177100	29.001322	369
177300	29.066707	0
177500	29.132166	0
177700	29.197699	0
177900	29.263306	2
178100	29.328986	0
178300	29.394739	1
178500	29.460567	0
178700	29.526468	1
178900	29.592442	0
179100	29.658490	0
179300	29.724612	0
179500	29.790808	0
179700	29.857077	1
179900	29.923419	0
180100	29.989836	82
180300	30.056326	0
180500	30.122889	0
180700	30.189526	0
180900	30.256237	1
181100	30.323022	1
181300	30.389880	0
181500	30.456811	0
181700	30.523817	1
181900	30.590896	0
182100	30.658048	0
182300	30.725274	1
182500	30.792574	1
182700	30.859948	0
182900	30.927395	1
183100	30.994915	566
183300	31.062510	22
183500	31.130177	0
183700	31.197919	0
183900	31.265734	2
184100	31.333623	0
184300	31.401585	0
184500	31.469622	0
184700	31.537731	0
184900	31.605915	0
185100	31.674171	0
185300	31.742502	0
185500	31.810906	0
185700	31.879384	0
185900	31.947935	973
186100	32.016561	1068
186300	32.085259	1
186500	32.154032	1
186700	32.222877	0
186900	32.291797	2
187100	32.360790	0
187300	32.429857	0
187500	32.498997	0
187700	32.568212	0
187900	32.637499	0
188100	32.706861	1
188300	32.776295	0
188500	32.845804	0
188700	32.915386	0
188900	32.985042	914
189100	33.054771	5
189300	33.124575	1
189500	33.194451	0
189700	33.264402	0
189900	33.334425	0
190100	33.404523	0
190300	33.474694	2
190500	33.544939	0
190700	33.615258	0
190900	33.685650	0
191100	33.756115	0
191300	33.826655	0
191500	33.897268	0
191700	33.967954	47
191900	34.038714	8
192100	34.109548	0
192300	34.180456	1
192500	34.251437	1
192700	34.322491	0
192900	34.393620	0
193100	34.464822	1
193300	34.536097	0
193500	34.607446	0
193700	34.678869	0
193900	34.750366	0
194100	34.821936	14
194300	34.893579	19
194500	34.965297	193213
194700	35.037088	1875
194900	35.108952	218
195100	35.180890	68
195300	35.252902	39
195500	35.324988	21
195700	35.397147	7
195900	35.469379	7
196100	35.541686	8
196300	35.614066	6
196500	35.686519	4
196700	35.759046	5
196900	35.831647	6
197100	35.904322	4
197300	35.977070	18000
197500	36.049892	197
197700	36.122787	5
197900	36.195756	0
198100	36.268798	4
198300	36.341915	1
198500	36.415104	2
198700	36.488368	0
198900	36.561705	1
199100	36.635116	4
199300	36.708600	2
199500	36.782158	1
199700	36.855789	5
199900	36.929495	28077
200100	37.003274	40474
200300	37.077126	142
200500	37.151052	32
200700	37.225052	16
200900	37.299125	9
201100	37.373272	3
201300	37.447493	10
201500	37.521787	1
201700	37.596155	0
201900	37.670596	4
202100	37.745111	1
202300	37.819700	0
202500	37.894362	1
202700	37.969098	387
202900	38.043908	2709
203100	38.118791	4
203300	38.193748	2
203500	38.268778	2
203700	38.343882	1
203900	38.419060	1
204100	38.494311	4
204300	38.569636	1
204500	38.645035	0
204700	38.720507	1
204900	38.796053	0
205100	38.871672	0
205300	38.947365	13
205500	39.023132	1945
205700	39.098973	10
205900	39.174887	3
206100	39.250874	0
206300	39.326935	0
206500	39.403070	0
206700	39.479279	0
206900	39.555561	5
207100	39.631916	1
207300	39.708346	1
207500	39.784849	2
207700	39.861425	1
207900	39.938075	10
208100	40.014799	5592
208300	40.091597	4
