# Binning: 200 channels
# Deadtime Correction: on
Channel	m/z	Intensity
100	0.000236	0
300	0.000457	26
500	0.000750	0
700	0.001116	0
900	0.001554	0
1100	0.002064	1
1300	0.002647	7
1500	0.003302	13
1700	0.004029	6
1900	0.004828	0
2100	0.005700	0
2300	0.006645	1
2500	0.007661	0
2700	0.008750	2
2900	0.009911	0
3100	0.011145	0
3300	0.012451	0
3500	0.013829	2
3700	0.015279	1
3900	0.016802	0
4100	0.018397	0
4300	0.020065	0
4500	0.021805	0
4700	0.023617	0
4900	0.025502	0
5100	0.027458	1
5300	0.029487	1
5500	0.031589	0
5700	0.033763	0
5900	0.036009	0
6100	0.038327	0
6300	0.040718	0
6500	0.043181	0
6700	0.045717	0
6900	0.048325	0
7100	0.051005	1
7300	0.053757	0
7500	0.056582	0
7700	0.059479	0
7900	0.062448	2
8100	0.065490	0
8300	0.068604	0
8500	0.071791	1
8700	0.075049	0
8900	0.078380	0
9100	0.081784	0
9300	0.085259	0
9500	0.088807	0
9700	0.092428	0
9900	0.096120	0
10100	0.099885	0
10300	0.103723	0
10500	0.107633	0
10700	0.111615	0
10900	0.115669	0
11100	0.119795	0
11300	0.123994	0
11500	0.128266	0
11700	0.132609	0
11900	0.137025	0
12100	0.141514	0
12300	0.146074	0
12500	0.150707	0
12700	0.155413	0
12900	0.160190	0
13100	0.165040	0
13300	0.169962	0
13500	0.174957	0
13700	0.180024	0
13900	0.185163	0
14100	0.190375	0
14300	0.195659	0
14500	0.201015	0
14700	0.206443	0
14900	0.211944	0
15100	0.217518	0
15300	0.223163	0
15500	0.228881	0
15700	0.234671	0
15900	0.240534	0
16100	0.246469	0
16300	0.252476	0
16500	0.258555	0
16700	0.264707	0
16900	0.270931	0
17100	0.277228	0
17300	0.283597	0
17500	0.290038	0
17700	0.296551	0
17900	0.303137	0
18100	0.309795	0
18300	0.316526	0
18500	0.323328	0
18700	0.330203	0
18900	0.337151	0
19100	0.344171	0
19300	0.351263	0
19500	0.358427	0
19700	0.365664	1
19900	0.372973	0
20100	0.380354	0
20300	0.387808	0
20500	0.395334	1
20700	0.402933	0
20900	0.410603	0
21100	0.418346	0
21300	0.426162	0
21500	0.434049	0
21700	0.442010	0
21900	0.450042	0
22100	0.458147	0
22300	0.466324	0
22500	0.474573	0
22700	0.482895	0
22900	0.491289	0
23100	0.499755	0
23300	0.508294	0
23500	0.516905	0
23700	0.525588	0
23900	0.534344	0
24100	0.543171	0
24300	0.552072	0
24500	0.561044	0
24700	0.570089	0
24900	0.579207	0
25100	0.588396	0
25300	0.597658	0
25500	0.606992	0
25700	0.616399	0
25900	0.625878	0
26100	0.635429	0
26300	0.645053	0
26500	0.654749	0
26700	0.664517	0
26900	0.674357	0
27100	0.684270	1
27300	0.694256	0
27500	0.704313	0
27700	0.714443	0
27900	0.724645	0
28100	0.734920	0
28300	0.745267	0
28500	0.755686	0
28700	0.766177	0
28900	0.776741	0
29100	0.787377	0
29300	0.798086	0
29500	0.808866	0
29700	0.819720	0
29900	0.830645	0
30100	0.841643	0
30300	0.852713	0
30500	0.863856	0
30700	0.875070	2
30900	0.886357	4
31100	0.897717	0
31300	0.909149	0
31500	0.920653	0
31700	0.932229	0
31900	0.943878	1
32100	0.955599	5
32300	0.967392	4
32500	0.979258	20
32700	0.991196	143
32900	1.003207	264500
33100	1.015289	3133
33300	1.027444	211
33500	1.039672	74
33700	1.051971	32
33900	1.064343	10
34100	1.076788	8
34300	1.089304	5
34500	1.101893	4
34700	1.114555	2
34900	1.127288	3
35100	1.140094	0
35300	1.152973	2
35500	1.165923	0
35700	1.178946	0
35900	1.192042	0
36100	1.205209	1
36300	1.218449	1
36500	1.231762	1
36700	1.245146	0
36900	1.258603	0
37100	1.272132	1
37300	1.285734	1
37500	1.299408	0
37700	1.313154	1
37900	1.326973	1
38100	1.340864	0
38300	1.354827	0
38500	1.368863	0
38700	1.382970	1
38900	1.397151	0
39100	1.411403	0
39300	1.425728	0
39500	1.440125	0
39700	1.454595	0
39900	1.469137	1
40100	1.483751	0
40300	1.498437	0
40500	1.513196	0
40700	1.528027	0
40900	1.542931	1
41100	1.557907	0
41300	1.572955	0
41500	1.588075	0
41700	1.603268	0
41900	1.618533	0
42100	1.633871	0
42300	1.649281	0
42500	1.664763	0
42700	1.680317	0
42900	1.695944	1
43100	1.711643	1
43300	1.727415	0
43500	1.743258	0
43700	1.759174	1
43900	1.775163	0
44100	1.791224	0
44300	1.807357	0
44500	1.823562	0
44700	1.839840	0
44900	1.856190	0
45100	1.872612	0
45300	1.889107	0
45500	1.905674	0
45700	1.922313	0
45900	1.939025	0
46100	1.955809	0
46300	1.972665	0
46500	1.989594	0
46700	2.006595	18
46900	2.023669	7
47100	2.040814	0
47300	2.058032	0
47500	2.075322	0
47700	2.092685	0
47900	2.110120	0
48100	2.127627	0
48300	2.145207	0
48500	2.162859	0
48700	2.180583	0
48900	2.198380	1
49100	2.216249	0
49300	2.234190	0
49500	2.252204	1
49700	2.270290	0
49900	2.288448	0
50100	2.306678	1
50300	2.324981	0
50500	2.343357	0
50700	2.361804	0
50900	2.380324	0
51100	2.398916	0
51300	2.417581	1
51500	2.436318	0
51700	2.455127	0
51900	2.474008	1
52100	2.492962	0
52300	2.511989	0
52500	2.531087	0
52700	2.550258	0
52900	2.569501	0
53100	2.588817	0
53300	2.608204	1
53500	2.627665	0
53700	2.647197	1
53900	2.666802	0
54100	2.686479	0
54300	2.706228	0
54500	2.726050	0
54700	2.745944	0
54900	2.765911	0
55100	2.785950	0
55300	2.806061	0
55500	2.826244	1
55700	2.846500	0
55900	2.866828	0
56100	2.887228	0
56300	2.907701	0
56500	2.928246	1
56700	2.948864	0
56900	2.969553	0
57100	2.990315	0
57300	3.011150	0
57500	3.032057	0
57700	3.053036	0
57900	3.074087	0
58100	3.095211	0
58300	3.116407	0
58500	3.137675	0
58700	3.159016	0
58900	3.180429	0
59100	3.201914	0
59300	3.223472	0
59500	3.245102	0
59700	3.266804	1
59900	3.288579	0
60100	3.310426	0
60300	3.332345	0
60500	3.354337	0
60700	3.376400	0
60900	3.398537	0
61100	3.420745	0
61300	3.443026	0
61500	3.465380	0
61700	3.487805	0
61900	3.510303	0
62100	3.532873	0
62300	3.555516	0
62500	3.578231	0
62700	3.601018	0
62900	3.623878	0
63100	3.646810	0
63300	3.669814	1
63500	3.692890	0
63700	3.716039	0
63900	3.739260	0
64100	3.762554	0
64300	3.785920	0
64500	3.809358	0
64700	3.832868	0
64900	3.856451	0
65100	3.880106	0
65300	3.903834	0
65500	3.927634	0
65700	3.951506	0
65900	3.975450	0
66100	3.999467	0
66300	4.023556	0
66500	4.047718	0
66700	4.071952	0
66900	4.096258	0
67100	4.120636	0
67300	4.145087	0
67500	4.169610	0
67700	4.194205	0
67900	4.218873	1
68100	4.243613	0
68300	4.268426	0
68500	4.293310	0
68700	4.318268	0
68900	4.343297	0
69100	4.368399	0
69300	4.393573	0
69500	4.418819	0
69700	4.444138	0
69900	4.469529	0
70100	4.494992	0
70300	4.520528	0
70500	4.546136	0
70700	4.571816	0
70900	4.597569	0
71100	4.623394	0
71300	4.649291	0
71500	4.675261	0
71700	4.701303	0
71900	4.727417	0
72100	4.753604	0
72300	4.779863	0
72500	4.806194	0
72700	4.832598	0
72900	4.859074	1
73100	4.885622	0
73300	4.912243	0
73500	4.938936	0
73700	4.965701	0
73900	4.992538	0
74100	5.019448	0
74300	5.046431	0
74500	5.073485	0
74700	5.100612	0
74900	5.127811	0
75100	5.155083	0
75300	5.182427	0
75500	5.209843	0
75700	5.237331	0
75900	5.264892	1
76100	5.292526	0
76300	5.320231	0
76500	5.348009	0
76700	5.375859	0
76900	5.403782	0
77100	5.431776	0
77300	5.459844	0
77500	5.487983	0
77700	5.516195	0
77900	5.544479	0
78100	5.572836	0
78300	5.601264	0
78500	5.629766	0
78700	5.658339	0
78900	5.686985	2
79100	5.715703	0
79300	5.744493	0
79500	5.773356	0
79700	5.802291	0
79900	5.831299	0
80100	5.860378	0
80300	5.889530	1
80500	5.918755	0
80700	5.948052	0
80900	5.977421	0
81100	6.006862	0
81300	6.036376	0
81500	6.065962	0
81700	6.095620	0
81900	6.125351	0
82100	6.155154	0
82300	6.185029	0
82500	6.214977	0
82700	6.244997	0
82900	6.275089	0
83100	6.305254	0
83300	6.335491	0
83500	6.365800	0
83700	6.396182	0
83900	6.426636	0
84100	6.457162	0
84300	6.487761	0
84500	6.518432	0
84700	6.549175	0
84900	6.579991	0
85100	6.610879	0
85300	6.641839	0
85500	6.672872	0
85700	6.703977	0
85900	6.735154	0
86100	6.766403	0
86300	6.797725	0
86500	6.829120	0
86700	6.860586	0
86900	6.892125	0
87100	6.923736	0
87300	6.955420	0
87500	6.987176	1
87700	7.019004	0
87900	7.050905	0
88100	7.082877	0
88300	7.114923	0
88500	7.147040	0
88700	7.179230	2
88900	7.211492	0
89100	7.243827	0
89300	7.276233	0
89500	7.308713	0
89700	7.341264	0
89900	7.373888	0
90100	7.406584	0
90300	7.439353	0
90500	7.472193	0
90700	7.505106	0
90900	7.538092	0
91100	7.571150	0
91300	7.604280	0
91500	7.637482	0
91700	7.670757	0
91900	7.704104	0
92100	7.737524	0
92300	7.771015	0
92500	7.804579	0
92700	7.838216	0
92900	7.871925	0
93100	7.905706	0
93300	7.939559	0
93500	7.973485	0
93700	8.007483	0
93900	8.041553	0
94100	8.075696	0
94300	8.109911	0
94500	8.144198	0
94700	8.178558	0
94900	8.212990	0
95100	8.247494	0
95300	8.282071	0
95500	8.316720	0
95700	8.351441	0
95900	8.386235	0
96100	8.421101	0
96300	8.456039	0
96500	8.491050	0
96700	8.526133	0
96900	8.561288	1
97100	8.596516	0
97300	8.631816	0
97500	8.667188	0
97700	8.702633	0
97900	8.738149	0
98100	8.773739	0
98300	8.809400	0
98500	8.845134	0
98700	8.880940	0
98900	8.916819	1
99100	8.952770	0
99300	8.988793	0
99500	9.024889	0
99700	9.061057	0
99900	9.097297	0
100100	9.133609	0
100300	9.169994	0
100500	9.206451	0
100700	9.242981	0
100900	9.279583	0
101100	9.316257	0
101300	9.353003	0
101500	9.389822	0
101700	9.426713	0
101900	9.463677	0
102100	9.500713	0
102300	9.537821	0
102500	9.575001	0
102700	9.612254	0
102900	9.649579	0
103100	9.686977	0
103300	9.724446	0
103500	9.761989	0
103700	9.799603	0
103900	9.837290	0
104100	9.875049	0
104300	9.912880	0
104500	9.950784	0
104700	9.988760	0
104900	10.026809	0
105100	10.064929	0
105300	10.103122	0
105500	10.141388	0
105700	10.179725	0
105900	10.218135	1
106100	10.256618	0
106300	10.295173	0
106500	10.333800	0
106700	10.372499	0
106900	10.411271	0
107100	10.450115	0
107300	10.489031	0
107500	10.528020	0
107700	10.567081	0
107900	10.606214	0
108100	10.645420	0
108300	10.684698	0
108500	10.724048	0
108700	10.763470	0
108900	10.802965	0
109100	10.842533	0
109300	10.882172	0
109500	10.921884	0
109700	10.961669	0
109900	11.001525	4
110100	11.041454	0
110300	11.081455	0
110500	11.121529	0
110700	11.161675	0
110900	11.201893	0
111100	11.242184	0
111300	11.282547	0
111500	11.322982	0
111700	11.363489	0
111900	11.404069	0
112100	11.444721	0
112300	11.485446	0
112500	11.526243	0
112700	11.567112	0
112900	11.608053	1
113100	11.649067	1
113300	11.690153	0
113500	11.731312	0
113700	11.772543	0
113900	11.813846	0
114100	11.855221	0
114300	11.896669	0
114500	11.938189	2
114700	11.979782	11414
114900	12.021447	8349
115100	12.063184	2
115300	12.104993	0
115500	12.146875	0
115700	12.188829	0
115900	12.230856	1
116100	12.272954	0
116300	12.315125	1
116500	12.357369	1
116700	12.399685	1
116900	12.442073	0
117100	12.484533	2
117300	12.527066	3
117500	12.569671	0
117700	12.612348	0
117900	12.655098	0
118100	12.697920	0
118300	12.740814	2
118500	12.783781	0
118700	12.826820	0
118900	12.869931	0
119100	12.913115	1
119300	12.956371	8
119500	12.999699	29523
119700	13.043100	80
119900	13.086573	1
120100	13.130118	3
120300	13.173736	2
120500	13.217426	1
120700	13.261188	2
120900	13.305023	0
121100	13.348930	0
121300	13.392909	2
121500	13.436961	0
121700	13.481085	0
121900	13.525281	2
122100	13.569550	5
122300	13.613891	0
122500	13.658304	1
122700	13.702789	0
122900	13.747347	0
123100	13.791977	0
123300	13.836680	2
123500	13.881455	0
123700	13.926302	0
123900	13.971222	1
124100	14.016214	5980
124300	14.061278	15
124500	14.106414	0
124700	14.151623	0
124900	14.196904	3
125100	14.242258	0
125300	14.287684	1
125500	14.333182	1
125700	14.378752	3
125900	14.424395	0
126100	14.470110	0
126300	14.515898	0
126500	14.561758	2
126700	14.607690	4
126900	14.653694	0
127100	14.699771	0
127300	14.745920	0
127500	14.792142	0
127700	14.838435	0
127900	14.884801	0
128100	14.931240	2
128300	14.977751	0
128500	15.024334	8382
128700	15.070989	41
128900	15.117717	14
129100	15.164517	3
129300	15.211389	1
129500	15.258334	4
129700	15.305351	3
129900	15.352441	2
130100	15.399602	0
130300	15.446836	0
130500	15.494143	1
130700	15.541521	4
130900	15.588972	2
131100	15.636496	8
131300	15.684091	1
131500	15.731759	1
131700	15.779500	2
131900	15.827312	1
132100	15.875197	0
132300	15.923155	14
132500	15.971184	44161
132700	16.019286	47488
132900	16.067461	5
133100	16.115707	5
133300	16.164026	2
133500	16.212417	1
133700	16.260881	0
133900	16.309417	0
134100	16.358025	1
134300	16.406706	1
134500	16.455459	2
134700	16.504284	2
134900	16.553182	0
135100	16.602151	2
135300	16.651194	2
135500	16.700308	1
135700	16.749495	0
135900	16.798754	0
136100	16.848086	1
136300	16.897490	4
136500	16.946966	8
136700	16.996514	48831
136900	17.046135	257
137100	17.095829	13
137300	17.145594	6
137500	17.195432	4
137700	17.245342	4
137900	17.295325	2
138100	17.345379	1
138300	17.395506	1
138500	17.445706	2
138700	17.495978	0
138900	17.546322	4
139100	17.596738	1
139300	17.647227	1
139500	17.697788	12
139700	17.748422	2
139900	17.799127	0
140100	17.849906	0
140300	17.900756	0
140500	17.951679	1
140700	18.002674	205
140900	18.053741	3
141100	18.104881	2
141300	18.156093	0
141500	18.207377	0
141700	18.258734	2
141900	18.310163	0
142100	18.361665	0
142300	18.413238	0
142500	18.464884	0
142700	18.516603	0
142900	18.568393	0
143100	18.620256	1
143300	18.672192	0
143500	18.724199	0
143700	18.776279	0
143900	18.828432	0
144100	18.880656	0
144300	18.932953	1
144500	18.985323	3940
144700	19.037764	130
144900	19.090278	2
145100	19.142865	0
145300	19.195523	1
145500	19.248254	0
145700	19.301057	0
145900	19.353933	1
146100	19.406881	0
146300	19.459901	0
146500	19.512994	0
146700	19.566159	0
146900	19.619396	0
147100	19.672706	0
147300	19.726087	0
147500	19.779542	0
147700	19.833068	1
147900	19.886667	0
148100	19.940338	0
148300	19.994082	0
148500	20.047898	0
148700	20.101786	0
148900	20.155746	0
149100	20.209779	0
149300	20.263885	1
149500	20.318062	0
149700	20.372312	0
149900	20.426634	1
150100	20.481028	0
150300	20.535495	0
150500	20.590034	0
150700	20.644646	0
150900	20.699330	0
151100	20.754086	0
151300	20.808914	0
151500	20.863815	0
151700	20.918788	0
151900	20.973834	0
152100	21.028951	0
152300	21.084142	1
152500	21.139404	0
152700	21.194739	0
152900	21.250146	0
153100	21.305625	0
153300	21.361177	0
153500	21.416801	0
153700	21.472497	0
153900	21.528266	0
154100	21.584107	0
154300	21.640021	0
154500	21.696006	0
154700	21.752064	0
154900	21.808195	0
155100	21.864397	0
155300	21.920672	0
155500	21.977020	1
155700	22.033439	0
155900	22.089931	0
156100	22.146496	0
156300	22.203132	0
156500	22.259841	1
156700	22.316623	0
156900	22.373476	0
157100	22.430402	0
157300	22.487400	0
157500	22.544471	0
157700	22.601614	0
157900	22.658829	0
158100	22.716117	0
158300	22.773477	0
158500	22.830909	0
158700	22.888414	0
158900	22.945991	0
159100	23.003640	27
159300	23.061361	0
159500	23.119155	0
159700	23.177022	0
159900	23.234960	1
160100	23.292971	1
160300	23.351054	0
160500	23.409210	0
160700	23.467438	0
160900	23.525738	0
161100	23.584110	0
161300	23.642555	2
161500	23.701072	1
161700	23.759662	0
161900	23.818324	0
162100	23.877058	3
162300	23.935864	38
162500	23.994743	60972
162700	24.053694	154
162900	24.112718	8
163100	24.171813	6
163300	24.230982	4
163500	24.290222	3
163700	24.349535	2
163900	24.408920	1
164100	24.468377	2
164300	24.527907	3
164500	24.587509	2
164700	24.647184	1
164900	24.706930	0
165100	24.766749	0
165300	24.826641	4
165500	24.886605	3
165700	24.946641	10
165900	25.006749	80146
166100	25.066930	517
166300	25.127183	68
166500	25.187508	32
166700	25.247906	18
166900	25.308376	9
167100	25.368918	7
167300	25.429533	6
167500	25.490220	0
167700	25.550979	3
167900	25.611811	1
168100	25.672715	2
168300	25.733691	1
168500	25.794740	0
168700	25.855861	3
168900	25.917054	4
169100	25.978320	50344
169300	26.039658	11683
169500	26.101068	1074
169700	26.162551	455
169900	26.224106	220
170100	26.285733	136
170300	26.347433	107
170500	26.409204	69
170700	26.471049	53
170900	26.532965	51
171100	26.594954	25
171300	26.657015	28
171500	26.719149	21
171700	26.781355	16
171900	26.843633	14
172100	26.905984	15
172300	26.968407	83
172500	27.030902	3079
172700	27.093469	50
172900	27.156109	21
173100	27.218821	11
173300	27.281606	7
173500	27.344463	8
173700	27.407392	4
173900	27.470393	5
174100	27.533467	5
174300	27.596613	7
174500	27.659832	4
174700	27.723123	4
174900	27.786486	3
175100	27.849921	3
175300	27.913429	4
175500	27.977009	85
175700	28.040662	61
175900	28.104386	2
176100	28.168183	5
176300	28.232053	1
176500	28.295995	2
176700	28.360009	0
176900	28.424095	3
177100	28.488254	0
177300	28.552485	0
177500	28.616788	0
177700	28.681164	0
177900	28.745612	1
178100	28.810133	0
178300	28.874725	0
178500	28.939390	17
178700	29.004128	560
178900	29.068937	17
179100	29.133819	3
179300	29.198774	1
179500	29.263800	0
179700	29.328899	2
179900	29.394071	1
180100	29.459314	0
180300	29.524630	0
180500	29.590019	0
180700	29.655479	2
180900	29.721012	3
181100	29.786618	1
181300	29.852295	0
181500	29.918045	0
181700	29.983868	97
181900	30.049762	6
182100	30.115729	1
182300	30.181768	0
182500	30.247880	1
182700	30.314064	1
182900	30.380320	0
183100	30.446649	0
183300	30.513050	0
183500	30.579523	1
183700	30.646068	1
183900	30.712686	0
184100	30.779377	1
184300	30.846139	1
184500	30.912974	0
184700	30.979881	59
184900	31.046861	599
185100	31.113913	3
185300	31.181037	0
185500	31.248233	1
185700	31.315502	0
185900	31.382843	0
186100	31.450257	0
186300	31.517743	1
186500	31.585301	0
186700	31.652931	0
186900	31.720634	0
187100	31.788409	0
187300	31.856257	2
187500	31.924176	1
187700	31.992168	2426
187900	32.060233	11
188100	32.128370	0
188300	32.196579	0
188500	32.264860	0
188700	32.333214	0
188900	32.401640	1
189100	32.470138	0
189300	32.538709	1
189500	32.607352	0
189700	32.676068	0
189900	32.744855	0
190100	32.813715	0
190300	32.882648	0
190500	32.951653	103
190700	33.020730	467
190900	33.089879	2
191100	33.159101	0
191300	33.228395	1
191500	33.297761	2
191700	33.367200	1
191900	33.436711	1
192100	33.506294	1
192300	33.575950	2
192500	33.645678	2
192700	33.715478	1
192900	33.785351	0
193100	33.855296	0
193300	33.925313	0
193500	33.995403	50
193700	34.065564	0
193900	34.135799	1
194100	34.206105	1
194300	34.276484	3
194500	34.346936	0
194700	34.417459	0
194900	34.488055	1
195100	34.558723	0
195300	34.629464	0
195500	34.700277	1
195700	34.771162	2
195900	34.842120	13
196100	34.913149	47
196300	34.984252	176291
196500	35.055426	1443
196700	35.126673	360
196900	35.197992	122
197100	35.269384	85
197300	35.340848	38
197500	35.412384	22
197700	35.483992	16
197900	35.555673	6
198100	35.627426	7
198300	35.699252	4
198500	35.771150	2
198700	35.843120	2
198900	35.915162	2
199100	35.987277	10318
199300	36.059464	45
199500	36.131724	2
199700	36.204056	2
199900	36.276460	0
200100	36.348936	0
200300	36.421485	0
200500	36.494106	2
200700	36.566799	1
200900	36.639565	1
201100	36.712403	1
201300	36.785314	0
201500	36.858296	4
201700	36.931351	34346
201900	37.004479	25310
202100	37.077679	321
202300	37.150951	86
202500	37.224295	31
202700	37.297712	16
202900	37.371201	11
203100	37.444762	3
203300	37.518396	5
203500	37.592102	4
203700	37.665880	3
203900	37.739731	0
204100	37.813654	3
204300	37.887649	3
204500	37.961717	64
204700	38.035857	2064
204900	38.110069	2
205100	38.184354	4
205300	38.258711	1
205500	38.333140	1
205700	38.407642	0
205900	38.482216	1
206100	38.556862	2
206300	38.631580	0
206500	38.706371	0
206700	38.781235	0
206900	38.856170	1
207100	38.931178	2
207300	39.006258	1273
207500	39.081411	160
207700	39.156636	17
207900	39.231933	2
208100	39.307303	2
