# Binning: 200 channels
# Deadtime Correction: on
Channel	m/z	Intensity
100	0.000247	1
300	0.000474	50
500	0.000775	2
700	0.001150	0
900	0.001598	0
1100	0.002119	0
1300	0.002714	4
1500	0.003383	6
1700	0.004126	4
1900	0.004941	1
2100	0.005831	0
2300	0.006794	1
2500	0.007830	2
2700	0.008941	0
2900	0.010124	0
3100	0.011381	1
3300	0.012712	0
3500	0.014117	0
3700	0.015595	0
3900	0.017146	0
4100	0.018771	0
4300	0.020470	1
4500	0.022242	0
4700	0.024088	0
4900	0.026007	0
5100	0.028000	0
5300	0.030067	0
5500	0.032207	1
5700	0.034420	1
5900	0.036707	1
6100	0.039068	0
6300	0.041502	0
6500	0.044010	0
6700	0.046591	1
6900	0.049246	0
7100	0.051975	0
7300	0.054777	0
7500	0.057653	0
7700	0.060602	0
7900	0.063625	0
8100	0.066721	1
8300	0.069891	1
8500	0.073134	0
8700	0.076452	0
8900	0.079842	0
9100	0.083306	2
9300	0.086844	0
9500	0.090455	0
9700	0.094140	0
9900	0.097899	0
10100	0.101731	0
10300	0.105636	0
10500	0.109615	0
10700	0.113668	0
10900	0.117794	0
11100	0.121994	0
11300	0.126267	0
11500	0.130614	0
11700	0.135035	0
11900	0.139529	0
12100	0.144096	0
12300	0.148738	0
12500	0.153452	0
12700	0.158241	0
12900	0.163103	0
13100	0.168038	0
13300	0.173047	1
13500	0.178130	0
13700	0.183286	0
13900	0.188515	0
14100	0.193819	0
14300	0.199195	0
14500	0.204646	1
14700	0.210170	0
14900	0.215767	0
15100	0.221438	0
15300	0.227183	0
15500	0.233001	1
15700	0.238893	0
15900	0.244858	0
16100	0.250897	0
16300	0.257010	0
16500	0.263196	0
16700	0.269455	0
16900	0.275788	0
17100	0.282195	0
17300	0.288675	0
17500	0.295229	0
17700	0.301857	0
17900	0.308558	0
18100	0.315332	0
18300	0.322180	0
18500	0.329102	0
18700	0.336097	0
18900	0.343166	0
19100	0.350308	0
19300	0.357524	0
19500	0.364814	0
19700	0.372177	0
19900	0.379613	0
20100	0.387124	0
20300	0.394707	0
20500	0.402365	0
20700	0.410095	0
20900	0.417900	0
21100	0.425778	0
21300	0.433729	0
21500	0.441755	0
21700	0.449853	0
21900	0.458026	0
22100	0.466271	1
22300	0.474591	0
22500	0.482984	0
22700	0.491450	0
22900	0.499990	0
23100	0.508604	0
23300	0.517291	0
23500	0.526052	1
23700	0.534886	0
23900	0.543794	0
24100	0.552775	0
24300	0.561830	0
24500	0.570959	1
24700	0.580161	0
24900	0.589437	0
25100	0.598786	0
25300	0.608209	0
25500	0.617705	0
25700	0.627275	0
25900	0.636919	0
26100	0.646636	0
26300	0.656427	0
26500	0.666291	0
26700	0.676229	0
26900	0.686240	0
27100	0.696325	0
27300	0.706483	0
27500	0.716715	0
27700	0.727021	0
27900	0.737400	0
28100	0.747853	0
28300	0.758379	0
28500	0.768979	0
28700	0.779652	0
28900	0.790399	0
29100	0.801220	0
29300	0.812114	0
29500	0.823082	0
29700	0.834123	0
29900	0.845238	0
30100	0.856426	0
30300	0.867688	0
30500	0.879023	1
30700	0.890432	0
30900	0.901915	0
31100	0.913471	0
31300	0.925101	0
31500	0.936804	0
31700	0.948581	0
31900	0.960432	2
32100	0.972356	5
32300	0.984353	21
32500	0.996424	17
32700	1.008569	199937
32900	1.020787	382
33100	1.033079	14
33300	1.045444	11
33500	1.057883	6
33700	1.070396	5
33900	1.082982	4
34100	1.095641	1
34300	1.108375	0
34500	1.121181	0
34700	1.134062	2
34900	1.147016	2
35100	1.160043	1
35300	1.173144	0
35500	1.186319	0
35700	1.199567	0
35900	1.212889	0
36100	1.226284	0
36300	1.239753	0
36500	1.253295	0
36700	1.266911	0
36900	1.280601	0
37100	1.294364	0
37300	1.308200	0
37500	1.322111	0
37700	1.336094	0
37900	1.350152	1
38100	1.364283	0
38300	1.378487	0
38500	1.392765	0
38700	1.407117	0
38900	1.421542	0
39100	1.436041	0
39300	1.450613	0
39500	1.465259	0
39700	1.479978	0
39900	1.494771	0
40100	1.509638	0
40300	1.524578	0
40500	1.539591	0
40700	1.554679	0
40900	1.569839	0
41100	1.585074	1
41300	1.600382	0
41500	1.615763	0
41700	1.631218	0
41900	1.646747	0
42100	1.662349	0
42300	1.678025	0
42500	1.693774	0
42700	1.709597	0
42900	1.725493	0
43100	1.741463	0
43300	1.757507	0
43500	1.773624	0
43700	1.789815	1
43900	1.806079	0
44100	1.822417	0
44300	1.838828	0
44500	1.855313	0
44700	1.871872	0
44900	1.888504	0
45100	1.905209	0
45300	1.921989	0
45500	1.938841	0
45700	1.955768	0
45900	1.972768	0
46100	1.989841	0
46300	2.006988	17
46500	2.024209	3
46700	2.041503	0
46900	2.058871	0
47100	2.076312	0
47300	2.093827	1
47500	2.111415	0
47700	2.129077	0
47900	2.146813	0
48100	2.164622	0
48300	2.182504	0
48500	2.200461	0
48700	2.218490	0
48900	2.236594	0
49100	2.254771	0
49300	2.273021	0
49500	2.291345	0
49700	2.309743	0
49900	2.328214	0
50100	2.346759	0
50300	2.365377	0
50500	2.384069	0
50700	2.402834	0
50900	2.421673	0
51100	2.440586	0
51300	2.459572	0
51500	2.478632	0
51700	2.497765	0
51900	2.516972	0
52100	2.536252	0
52300	2.555606	0
52500	2.575033	0
52700	2.594534	0
52900	2.614109	0
53100	2.633757	0
53300	2.653479	0
53500	2.673274	0
53700	2.693143	0
53900	2.713086	0
54100	2.733102	0
54300	2.753191	0
54500	2.773354	0
54700	2.793591	0
54900	2.813901	0
55100	2.834285	0
55300	2.854742	0
55500	2.875273	0
55700	2.895878	0
55900	2.916556	0
56100	2.937308	0
56300	2.958133	0
56500	2.979032	0
56700	3.000004	0
56900	3.021050	0
57100	3.042169	0
57300	3.063362	0
57500	3.084629	0
57700	3.105969	0
57900	3.127383	0
58100	3.148870	0
58300	3.170431	0
58500	3.192065	0
58700	3.213773	0
58900	3.235555	0
59100	3.257410	0
59300	3.279339	0
59500	3.301341	0
59700	3.323417	0
59900	3.345566	0
60100	3.367789	0
60300	3.390085	0
60500	3.412455	0
60700	3.434899	0
60900	3.457416	0
61100	3.480007	0
61300	3.502671	0
61500	3.525409	0
61700	3.548221	0
61900	3.571106	0
62100	3.594064	0
62300	3.617096	0
62500	3.640202	0
62700	3.663381	0
62900	3.686634	0
63100	3.709960	1
63300	3.733360	0
63500	3.756834	0
63700	3.780381	0
63900	3.804001	0
64100	3.827696	0
64300	3.851463	0
64500	3.875305	0
64700	3.899220	0
64900	3.923208	0
65100	3.947270	0
65300	3.971406	0
65500	3.995615	0
65700	4.019898	0
65900	4.044254	0
66100	4.068684	0
66300	4.093187	0
66500	4.117764	0
66700	4.142414	0
66900	4.167139	0
67100	4.191936	0
67300	4.216807	0
67500	4.241752	0
67700	4.266771	0
67900	4.291862	0
68100	4.317028	0
68300	4.342267	0
68500	4.367580	0
68700	4.392966	0
68900	4.418425	0
69100	4.443959	0
69300	4.469566	0
69500	4.495246	0
69700	4.521000	0
69900	4.546827	0
70100	4.572729	0
70300	4.598703	0
70500	4.624751	0
70700	4.650873	0
70900	4.677069	0
71100	4.703338	0
71300	4.729680	0
71500	4.756096	0
71700	4.782586	0
71900	4.809149	0
72100	4.835786	0
72300	4.862496	0
72500	4.889280	0
72700	4.916137	0
72900	4.943068	0
73100	4.970073	0
73300	4.997151	0
73500	5.024303	0
73700	5.051528	0
73900	5.078827	0
74100	5.106199	0
74300	5.133645	0
74500	5.161164	0
74700	5.188758	0
74900	5.216424	0
75100	5.244164	0
75300	5.271978	0
75500	5.299865	0
75700	5.327826	0
75900	5.355861	0
76100	5.383969	0
76300	5.412150	0
76500	5.440406	0
76700	5.468734	0
76900	5.497137	0
77100	5.525612	0
77300	5.554162	0
77500	5.582785	0
77700	5.611481	0
77900	5.640251	0
78100	5.669095	0
78300	5.698012	0
78500	5.727003	0
78700	5.756067	0
78900	5.785205	0
79100	5.814417	0
79300	5.843702	0
79500	5.873060	0
79700	5.902493	0
79900	5.931998	0
80100	5.961578	0
80300	5.991230	0
80500	6.020957	0
80700	6.050757	0
80900	6.080630	0
81100	6.110577	0
81300	6.140598	0
81500	6.170692	0
81700	6.200860	0
81900	6.231102	0
82100	6.261416	0
82300	6.291805	0
82500	6.322267	0
82700	6.352803	0
82900	6.383412	0
83100	6.414095	0
83300	6.444851	0
83500	6.475681	0
83700	6.506584	0
83900	6.537561	0
84100	6.568612	0
84300	6.599736	0
84500	6.630934	0
84700	6.662205	0
84900	6.693550	0
85100	6.724968	0
85300	6.756460	0
85500	6.788025	0
85700	6.819665	0
85900	6.851377	0
86100	6.883163	0
86300	6.915023	0
86500	6.946957	0
86700	6.978963	2
86900	7.011044	0
87100	7.043198	0
87300	7.075425	0
87500	7.107727	0
87700	7.140101	0
87900	7.172550	1
88100	7.205071	0
88300	7.237667	0
88500	7.270336	1
88700	7.303078	0
88900	7.335894	0
89100	7.368784	0
89300	7.401747	0
89500	7.434784	0
89700	7.467894	0
89900	7.501078	0
90100	7.534336	0
90300	7.567667	0
90500	7.601071	0
90700	7.634550	0
90900	7.668101	0
91100	7.701727	0
91300	7.735426	0
91500	7.769198	0
91700	7.803044	0
91900	7.836964	0
92100	7.870957	0
92300	7.905023	0
92500	7.939164	0
92700	7.973377	0
92900	8.007665	0
93100	8.042026	0
93300	8.076460	0
93500	8.110968	0
93700	8.145550	0
93900	8.180205	0
94100	8.214934	0
94300	8.249736	0
94500	8.284612	0
94700	8.319561	0
94900	8.354584	0
95100	8.389681	0
95300	8.424851	0
95500	8.460095	0
95700	8.495412	0
95900	8.530803	0
96100	8.566267	0
96300	8.601805	0
96500	8.637417	0
96700	8.673102	0
96900	8.708860	0
97100	8.744693	0
97300	8.780598	0
97500	8.816578	0
97700	8.852631	0
97900	8.888757	0
98100	8.924957	0
98300	8.961231	0
98500	8.997578	0
98700	9.033999	0
98900	9.070493	0
99100	9.107061	0
99300	9.143702	0
99500	9.180417	0
99700	9.217206	0
99900	9.254068	0
100100	9.291003	0
100300	9.328013	0
100500	9.365095	0
100700	9.402252	0
100900	9.439482	0
101100	9.476785	0
101300	9.514162	0
101500	9.551613	0
101700	9.589137	0
101900	9.626735	0
102100	9.664406	0
102300	9.702151	0
102500	9.739969	0
102700	9.777861	0
102900	9.815827	0
103100	9.853866	0
103300	9.891979	0
103500	9.930165	0
103700	9.968425	0
103900	10.006758	0
104100	10.045165	0
104300	10.083646	0
104500	10.122200	0
104700	10.160827	0
104900	10.199529	0
105100	10.238303	0
105300	10.277152	0
105500	10.316073	0
105700	10.355069	0
105900	10.394138	0
106100	10.433281	0
106300	10.472497	0
106500	10.511786	0
106700	10.551150	0
106900	10.590586	0
107100	10.630097	0
107300	10.669681	1
107500	10.709338	0
107700	10.749069	0
107900	10.788874	0
108100	10.828752	0
108300	10.868704	0
108500	10.908729	0
108700	10.948828	0
108900	10.989001	0
109100	11.029247	0
109300	11.069566	0
109500	11.109960	0
109700	11.150426	0
109900	11.190967	0
110100	11.231580	0
110300	11.272268	0
110500	11.313029	0
110700	11.353863	0
110900	11.394771	0
111100	11.435753	0
111300	11.476808	0
111500	11.517937	0
111700	11.559140	0
111900	11.600415	0
112100	11.641765	0
112300	11.683188	0
112500	11.724685	0
112700	11.766255	1
112900	11.807899	1
113100	11.849616	0
113300	11.891407	0
113500	11.933271	3
113700	11.975209	39
113900	12.017221	35089
114100	12.059306	1
114300	12.101464	1
114500	12.143697	1
114700	12.186003	2
114900	12.228382	1
115100	12.270835	0
115300	12.313361	0
115500	12.355961	1
115700	12.398635	3
115900	12.441382	0
116100	12.484203	0
116300	12.527097	1
116500	12.570065	1
116700	12.613107	1
116900	12.656222	0
117100	12.699410	0
117300	12.742672	1
117500	12.786008	3
117700	12.829417	0
117900	12.872900	1
118100	12.916457	1
118300	12.960087	2
118500	13.003790	29647
118700	13.047567	49
118900	13.091418	0
119100	13.135342	3
119300	13.179340	2
119500	13.223411	3
119700	13.267556	1
119900	13.311775	5
120100	13.356067	1
120300	13.400432	0
120500	13.444871	1
120700	13.489384	0
120900	13.533970	12
121100	13.578630	0
121300	13.623364	1
121500	13.668171	0
121700	13.713051	0
121900	13.758005	1
122100	13.803033	0
122300	13.848134	0
122500	13.893309	1
122700	13.938557	0
122900	13.983879	0
123100	14.029275	3510
123300	14.074744	0
123500	14.120287	0
123700	14.165903	1
123900	14.211592	1
124100	14.257356	0
124300	14.303193	1
124500	14.349103	0
124700	14.395087	1
124900	14.441145	0
125100	14.487276	1
125300	14.533481	2
125500	14.579759	4
125700	14.626111	0
125900	14.672536	1
126100	14.719035	0
126300	14.765607	0
126500	14.812254	1
126700	14.858973	1
126900	14.905766	0
127100	14.952633	0
127300	14.999573	762
127500	15.046587	5855
127700	15.093675	8
127900	15.140836	5
128100	15.188070	1
128300	15.235379	1
128500	15.282760	0
128700	15.330216	1
128900	15.377744	3
129100	15.425347	0
129300	15.473023	1
129500	15.520772	1
129700	15.568595	0
129900	15.616492	0
130100	15.664462	6
130300	15.712506	0
130500	15.760623	0
130700	15.808814	1
130900	15.857079	0
131100	15.905417	7
131300	15.953828	18
131500	16.002314	83858
131700	16.050872	97
131900	16.099505	3
132100	16.148211	2
132300	16.196990	1
132500	16.245843	3
132700	16.294769	2
132900	16.343770	0
133100	16.392843	1
133300	16.441991	1
133500	16.491211	1
133700	16.540506	2
133900	16.589874	0
134100	16.639315	1
134300	16.688830	0
134500	16.738419	1
134700	16.788081	0
134900	16.837817	0
135100	16.887626	2
135300	16.937509	1
135500	16.987465	34170
135700	17.037495	151
135900	17.087599	3
136100	17.137776	0
136300	17.188027	3
136500	17.238351	2
136700	17.288749	1
136900	17.339220	1
137100	17.389765	1
137300	17.440384	0
137500	17.491076	0
137700	17.541841	0
137900	17.592681	2
138100	17.643593	0
138300	17.694580	9
138500	17.745640	1
138700	17.796773	0
138900	17.847980	1
139100	17.899261	1
139300	17.950615	0
139500	18.002043	143
139700	18.053544	0
139900	18.105119	0
140100	18.156767	1
140300	18.208489	0
140500	18.260285	0
140700	18.312154	0
140900	18.364096	0
141100	18.416113	0
141300	18.468202	0
141500	18.520366	1
141700	18.572603	0
141900	18.624913	0
142100	18.677297	0
142300	18.729755	0
142500	18.782286	0
142700	18.834891	0
142900	18.887569	1
143100	18.940321	0
143300	18.993146	5499
143500	19.046045	29
143700	19.099018	3
143900	19.152064	0
144100	19.205184	1
144300	19.258377	0
144500	19.311644	0
144700	19.364984	0
144900	19.418398	1
145100	19.471886	0
145300	19.525447	0
145500	19.579081	1
145700	19.632790	0
145900	19.686571	1
146100	19.740427	2
146300	19.794356	0
146500	19.848358	1
146700	19.902434	0
146900	19.956584	1
147100	20.010807	0
147300	20.065103	0
147500	20.119474	0
147700	20.173917	0
147900	20.228435	0
148100	20.283026	0
148300	20.337690	0
148500	20.392428	0
148700	20.447240	0
148900	20.502125	0
149100	20.557084	0
149300	20.612116	0
149500	20.667222	0
149700	20.722402	0
149900	20.777655	0
150100	20.832981	0
150300	20.888382	0
150500	20.943855	0
150700	20.999403	0
150900	21.055023	0
151100	21.110718	0
151300	21.166486	0
151500	21.222327	0
151700	21.278243	0
151900	21.334231	1
152100	21.390293	0
152300	21.446429	1
152500	21.502639	0
152700	21.558921	0
152900	21.615278	0
153100	21.671708	0
153300	21.728212	0
153500	21.784789	1
153700	21.841440	0
153900	21.898164	0
154100	21.954962	0
154300	22.011833	0
154500	22.068778	0
154700	22.125797	0
154900	22.182889	0
155100	22.240055	0
155300	22.297294	0
155500	22.354607	0
155700	22.411993	0
155900	22.469453	0
156100	22.526986	0
156300	22.584594	0
156500	22.642274	0
156700	22.700028	0
156900	22.757856	0
157100	22.815757	0
157300	22.873732	0
157500	22.931781	1
157700	22.989903	71
157900	23.048098	1
158100	23.106368	0
158300	23.164710	0
158500	23.223127	0
158700	23.281616	0
158900	23.340180	1
159100	23.398817	0
159300	23.457527	0
159500	23.516311	0
159700	23.575169	1
159900	23.634100	0
160100	23.693105	0
160300	23.752183	0
160500	23.811335	0
160700	23.870561	5
160900	23.929860	52
161100	23.989232	148468
161300	24.048679	360
161500	24.108198	18
161700	24.167792	12
161900	24.227458	9
162100	24.287199	10
162300	24.347013	8
162500	24.406900	4
162700	24.466861	6
162900	24.526896	6
163100	24.587004	4
163300	24.647186	4
163500	24.707442	3
163700	24.767770	7
163900	24.828173	8
164100	24.888649	25
164300	24.949199	23
164500	25.009822	191774
164700	25.070519	345
164900	25.131289	29
165100	25.192133	14
165300	25.253050	7
165500	25.314041	11
165700	25.375106	3
165900	25.436244	1
166100	25.497456	4
166300	25.558741	9
166500	25.620100	2
166700	25.681532	1
166900	25.743038	0
167100	25.804618	0
167300	25.866271	6
167500	25.927997	9
167700	25.989797	123304
167900	26.051671	3339
168100	26.113619	477
168300	26.175639	169
168500	26.237734	82
168700	26.299902	52
168900	26.362144	29
169100	26.424459	20
169300	26.486847	16
169500	26.549310	19
169700	26.611846	5
169900	26.674455	8
170100	26.737138	12
170300	26.799894	10
170500	26.862725	7
170700	26.925628	3
170900	26.988605	2100
171100	27.051656	818
171300	27.114781	9
171500	27.177978	9
171700	27.241250	7
171900	27.304595	3
172100	27.368014	6
172300	27.431506	2
172500	27.495072	2
172700	27.558711	1
172900	27.622424	2
173100	27.686210	0
173300	27.750070	0
173500	27.814004	3
173700	27.878011	0
173900	27.942091	8
174100	28.006246	99
174300	28.070473	1
174500	28.134775	1
174700	28.199150	0
174900	28.263598	1
175100	28.328120	1
175300	28.392716	1
175500	28.457385	0
175700	28.522128	0
175900	28.586944	0
176100	28.651834	1
176300	28.716798	1
176500	28.781835	0
176700	28.846945	0
176900	28.912129	3
177100	28.977387	225
177300	29.042718	12
177500	29.108123	0
177700	29.173601	1
177900	29.239153	1
178100	29.304779	0
178300	29.370478	0
178500	29.436251	1
178700	29.502097	0
178900	29.568017	0
179100	29.634010	1
179300	29.700077	1
179500	29.766217	0
179700	29.832431	0
179900	29.898719	1
180100	29.965080	75
180300	30.031515	61
180500	30.098023	0
180700	30.164605	0
180900	30.231260	2
181100	30.297989	0
181300	30.364792	0
181500	30.431668	1
181700	30.498618	1
181900	30.565641	0
182100	30.632738	0
182300	30.699908	1
182500	30.767152	0
182700	30.834469	0
182900	30.901860	1
183100	30.969325	24
183300	31.036863	473
183500	31.104475	1
183700	31.172160	1
183900	31.239919	0
184100	31.307752	2
184300	31.375658	0
184500	31.443637	0
184700	31.511690	0
184900	31.579817	0
185100	31.648017	0
185300	31.716291	0
185500	31.784638	1
185700	31.853059	0
185900	31.921554	2
186100	31.990122	1984
186300	32.058764	3
186500	32.127479	1
186700	32.196268	0
186900	32.265130	1
187100	32.334066	0
187300	32.403075	1
187500	32.472158	1
187700	32.541315	0
187900	32.610545	0
188100	32.679849	0
188300	32.749226	0
188500	32.818677	0
188700	32.888201	1
188900	32.957799	425
189100	33.027471	246
189300	33.097216	1
189500	33.167034	1
189700	33.236927	0
189900	33.306892	0
190100	33.376932	0
190300	33.447045	0
190500	33.517231	0
190700	33.587491	0
190900	33.657825	0
191100	33.728232	0
191300	33.798713	1
191500	33.869267	0
191700	33.939895	35
191900	34.010596	28
192100	34.081371	0
192300	34.152220	1
192500	34.223142	4
192700	34.294137	1
192900	34.365207	0
193100	34.436349	0
193300	34.507566	0
193500	34.578856	1
193700	34.650219	0
193900	34.721656	1
194100	34.793167	1
194300	34.864751	22
194500	34.936409	187665
194700	35.008140	67141
194900	35.079945	369
195100	35.151823	129
195300	35.223775	50
195500	35.295801	39
195700	35.367900	20
195900	35.440073	10
196100	35.512319	3
196300	35.584639	6
196500	35.657032	2
196700	35.729499	5
196900	35.802040	5
197100	35.874654	7
197300	35.947341	38
197500	36.020103	24349
197700	36.092937	11
197900	36.165846	7
198100	36.238828	3
198300	36.311883	1
198500	36.385012	3
198700	36.458215	2
198900	36.531491	2
199100	36.604841	1
199300	36.678264	1
199500	36.751761	0
199700	36.825331	5
199900	36.898975	5
200100	36.972693	85681
200300	37.046484	2145
200500	37.120348	60
200700	37.194286	19
200900	37.268298	10
201100	37.342384	6
201300	37.416543	4
201500	37.490775	7
201700	37.565081	6
201900	37.639461	3
202100	37.713914	0
202300	37.788441	2
202500	37.863041	2
202700	37.937715	3
202900	38.012462	2675
203100	38.087283	6
203300	38.162178	1
203500	38.237146	0
203700	38.312187	2
203900	38.387303	0
204100	38.462491	2
204300	38.537754	4
204500	38.613090	3
204700	38.688499	1
204900	38.763982	0
205100	38.839539	1
205300	38.915169	1
205500	38.990873	1344
205700	39.066650	159
205900	39.142501	3
206100	39.218426	0
206300	39.294424	0
206500	39.370495	1
206700	39.446640	0
206900	39.522859	0
207100	39.599151	5
207300	39.675517	0
207500	39.751956	1
207700	39.828469	3
207900	39.905056	2
208100	39.981716	6398
