# Binning: 200 channels
# Deadtime Correction: on
Channel	m/z	Intensity
100	0.000400	0
300	0.000679	0
500	0.001032	0
700	0.001457	0
900	0.001957	0
1100	0.002529	0
1300	0.003175	0
1500	0.003894	0
1700	0.004687	0
1900	0.005553	0
2100	0.006493	0
2300	0.007505	0
2500	0.008592	0
2700	0.009751	0
2900	0.010984	0
3100	0.012290	0
3300	0.013670	0
3500	0.015123	0
3700	0.016649	0
3900	0.018249	0
4100	0.019922	0
4300	0.021669	0
4500	0.023489	0
4700	0.025382	0
4900	0.027349	0
5100	0.029389	0
5300	0.031502	0
5500	0.033689	0
5700	0.035949	0
5900	0.038283	0
6100	0.040690	0
6300	0.043170	0
6500	0.045724	1
6700	0.048351	0
6900	0.051051	0
7100	0.053825	0
7300	0.056673	0
7500	0.059593	0
7700	0.062587	0
7900	0.065654	0
8100	0.068795	0
8300	0.072009	0
8500	0.075297	0
8700	0.078657	0
8900	0.082092	0
9100	0.085599	0
9300	0.089180	1
9500	0.092835	0
9700	0.096562	0
9900	0.100363	0
10100	0.104238	0
10300	0.108186	0
10500	0.112207	0
10700	0.116301	0
10900	0.120469	0
11100	0.124711	0
11300	0.129025	0
11500	0.133414	0
11700	0.137875	0
11900	0.142410	0
12100	0.147018	0
12300	0.151700	0
12500	0.156455	0
12700	0.161283	0
12900	0.166185	0
13100	0.171160	0
13300	0.176208	0
13500	0.181330	0
13700	0.186525	0
13900	0.191794	0
14100	0.197136	0
14300	0.202551	0
14500	0.208040	0
14700	0.213602	0
14900	0.219238	0
15100	0.224947	0
15300	0.230729	0
15500	0.236584	0
15700	0.242513	0
15900	0.248516	0
16100	0.254592	0
16300	0.260741	0
16500	0.266963	0
16700	0.273259	0
16900	0.279628	0
17100	0.286071	0
17300	0.292587	0
17500	0.299176	0
17700	0.305839	0
17900	0.312575	0
18100	0.319385	0
18300	0.326268	0
18500	0.333224	0
18700	0.340253	0
18900	0.347356	0
19100	0.354533	0
19300	0.361783	0
19500	0.369106	0
19700	0.376502	0
19900	0.383972	0
20100	0.391515	0
20300	0.399132	0
20500	0.406822	0
20700	0.414585	0
20900	0.422422	0
21100	0.430332	0
21300	0.438316	0
21500	0.446373	0
21700	0.454503	0
21900	0.462707	0
22100	0.470984	0
22300	0.479334	0
22500	0.487758	0
22700	0.496255	0
22900	0.504826	0
23100	0.513470	0
23300	0.522187	0
23500	0.530977	0
23700	0.539842	0
23900	0.548779	0
24100	0.557790	0
24300	0.566874	0
24500	0.576031	0
24700	0.585262	0
24900	0.594567	0
25100	0.603944	0
25300	0.613395	0
25500	0.622920	0
25700	0.632518	0
25900	0.642189	0
26100	0.651933	0
26300	0.661751	0
26500	0.671642	0
26700	0.681607	0
26900	0.691645	0
27100	0.701757	0
27300	0.711941	0
27500	0.722200	0
27700	0.732531	0
27900	0.742936	0
28100	0.753414	0
28300	0.763966	0
28500	0.774591	0
28700	0.785290	0
28900	0.796061	0
29100	0.806907	0
29300	0.817825	0
29500	0.828817	0
29700	0.839882	0
29900	0.851021	0
30100	0.862233	0
30300	0.873519	0
30500	0.884877	0
30700	0.896310	0
30900	0.907815	0
31100	0.919394	0
31300	0.931046	0
31500	0.942772	0
31700	0.954571	0
31900	0.966444	0
32100	0.978389	0
32300	0.990409	0
32500	1.002501	1815
32700	1.014667	91
32900	1.026907	1
33100	1.039219	0
33300	1.051605	0
33500	1.064065	0
33700	1.076598	0
33900	1.089204	0
34100	1.101883	0
34300	1.114636	0
34500	1.127463	0
34700	1.140362	0
34900	1.153336	0
35100	1.166382	0
35300	1.179502	0
35500	1.192695	0
35700	1.205962	0
35900	1.219302	0
36100	1.232715	0
36300	1.246202	0
36500	1.259762	0
36700	1.273395	0
36900	1.287102	0
37100	1.300882	0
37300	1.314736	0
37500	1.328663	0
37700	1.342663	0
37900	1.356737	0
38100	1.370884	0
38300	1.385105	0
38500	1.399399	0
38700	1.413766	0
38900	1.428206	0
39100	1.442720	0
39300	1.457308	0
39500	1.471968	0
39700	1.486703	0
39900	1.501510	0
40100	1.516391	0
40300	1.531345	0
40500	1.546373	0
40700	1.561474	0
40900	1.576648	0
41100	1.591896	0
41300	1.607217	0
41500	1.622612	0
41700	1.638079	0
41900	1.653621	0
42100	1.669235	0
42300	1.684923	0
42500	1.700685	0
42700	1.716519	0
42900	1.732428	0
43100	1.748409	0
43300	1.764464	0
43500	1.780592	0
43700	1.796794	0
43900	1.813069	0
44100	1.829417	0
44300	1.845839	0
44500	1.862334	0
44700	1.878903	0
44900	1.895545	0
45100	1.912260	0
45300	1.929048	0
45500	1.945911	0
45700	1.962846	0
45900	1.979855	0
46100	1.996937	0
46300	2.014092	98
46500	2.031321	0
46700	2.048624	0
46900	2.065999	0
47100	2.083448	0
47300	2.100971	0
47500	2.118566	0
47700	2.136236	0
47900	2.153978	0
48100	2.171794	0
48300	2.189683	0
48500	2.207646	0
48700	2.225682	0
48900	2.243791	0
49100	2.261974	0
49300	2.280230	0
49500	2.298560	0
49700	2.316963	0
49900	2.335439	0
50100	2.353989	0
50300	2.372612	0
50500	2.391308	0
50700	2.410078	0
50900	2.428921	0
51100	2.447838	0
51300	2.466828	0
51500	2.485891	0
51700	2.505028	0
51900	2.524238	0
52100	2.543521	0
52300	2.562878	0
52500	2.582308	0
52700	2.601812	0
52900	2.621389	0
53100	2.641039	0
53300	2.660763	0
53500	2.680560	0
53700	2.700430	0
53900	2.720374	0
54100	2.740391	0
54300	2.760482	0
54500	2.780646	0
54700	2.800883	0
54900	2.821194	0
55100	2.841578	0
55300	2.862035	0
55500	2.882566	0
55700	2.903170	0
55900	2.923848	0
56100	2.944599	0
56300	2.965423	0
56500	2.986321	1
56700	3.007292	0
56900	3.028336	35
57100	3.049454	0
57300	3.070645	0
57500	3.091910	0
57700	3.113248	0
57900	3.134659	0
58100	3.156144	0
58300	3.177702	0
58500	3.199333	0
58700	3.221038	0
58900	3.242817	0
59100	3.264668	0
59300	3.286593	0
59500	3.308591	0
59700	3.330663	0
59900	3.352808	0
60100	3.375027	0
60300	3.397319	0
60500	3.419684	0
60700	3.442122	0
60900	3.464634	0
61100	3.487220	0
61300	3.509878	0
61500	3.532611	0
61700	3.555416	0
61900	3.578295	0
62100	3.601247	0
62300	3.624273	0
62500	3.647372	0
62700	3.670544	0
62900	3.693790	0
63100	3.717109	0
63300	3.740501	0
63500	3.763967	0
63700	3.787507	0
63900	3.811119	0
64100	3.834805	0
64300	3.858564	0
64500	3.882397	0
64700	3.906303	0
64900	3.930283	0
65100	3.954336	0
65300	3.978462	0
65500	4.002662	0
65700	4.026935	0
65900	4.051281	0
66100	4.075701	0
66300	4.100194	0
66500	4.124760	0
66700	4.149400	0
66900	4.174114	0
67100	4.198900	0
67300	4.223760	0
67500	4.248694	0
67700	4.273700	0
67900	4.298780	0
68100	4.323934	0
68300	4.349161	0
68500	4.374461	0
68700	4.399835	0
68900	4.425282	0
69100	4.450802	0
69300	4.476396	0
69500	4.502063	0
69700	4.527804	0
69900	4.553617	0
70100	4.579505	0
70300	4.605465	0
70500	4.631499	0
70700	4.657607	0
70900	4.683788	0
71100	4.710042	0
71300	4.736369	0
71500	4.762770	0
71700	4.789244	0
71900	4.815792	0
72100	4.842413	0
72300	4.869108	0
72500	4.895875	0
72700	4.922717	0
72900	4.949631	0
73100	4.976619	0
73300	5.003680	0
73500	5.030815	0
73700	5.058023	0
73900	5.085304	0
74100	5.112659	0
74300	5.140087	0
74500	5.167589	0
74700	5.195164	0
74900	5.222812	0
75100	5.250534	0
75300	5.278329	0
75500	5.306197	0
75700	5.334139	0
75900	5.362154	0
76100	5.390243	0
76300	5.418405	0
76500	5.446640	0
76700	5.474949	1
76900	5.503331	0
77100	5.531786	0
77300	5.560315	0
77500	5.588917	0
77700	5.617593	0
77900	5.646342	0
78100	5.675164	0
78300	5.704060	0
78500	5.733029	0
78700	5.762071	0
78900	5.791187	0
79100	5.820376	0
79300	5.849639	0
79500	5.878975	0
79700	5.908384	0
79900	5.937867	0
80100	5.967423	0
80300	5.997052	0
80500	6.026755	14
80700	6.056531	0
80900	6.086381	0
81100	6.116304	0
81300	6.146300	0
81500	6.176370	0
81700	6.206513	0
81900	6.236729	0
82100	6.267019	0
82300	6.297382	0
82500	6.327819	0
82700	6.358329	0
82900	6.388912	0
83100	6.419569	0
83300	6.450299	0
83500	6.481103	0
83700	6.511979	0
83900	6.542930	0
84100	6.573953	0
84300	6.605050	0
84500	6.636221	0
84700	6.667464	0
84900	6.698781	0
85100	6.730172	0
85300	6.761636	0
85500	6.793173	0
85700	6.824784	0
85900	6.856468	0
86100	6.888225	0
86300	6.920056	0
86500	6.951960	0
86700	6.983937	0
86900	7.015988	134
87100	7.048112	0
87300	7.080310	1
87500	7.112581	0
87700	7.144925	0
87900	7.177343	0
88100	7.209834	0
88300	7.242399	0
88500	7.275037	0
88700	7.307748	0
88900	7.340532	0
89100	7.373390	0
89300	7.406322	0
89500	7.439327	0
89700	7.472405	0
89900	7.505556	0
90100	7.538781	0
90300	7.572079	0
90500	7.605451	0
90700	7.638896	0
90900	7.672414	0
91100	7.706006	0
91300	7.739671	0
91500	7.773410	0
91700	7.807222	0
91900	7.841107	0
92100	7.875065	0
92300	7.909097	0
92500	7.943203	0
92700	7.977382	0
92900	8.011634	0
93100	8.045959	0
93300	8.080358	0
93500	8.114830	0
93700	8.149376	0
93900	8.183995	0
94100	8.218688	0
94300	8.253453	0
94500	8.288292	0
94700	8.323205	0
94900	8.358191	0
95100	8.393250	0
95300	8.428383	0
95500	8.463589	0
95700	8.498868	0
95900	8.534221	0
96100	8.569647	0
96300	8.605147	0
96500	8.640720	0
96700	8.676366	0
96900	8.712086	0
97100	8.747879	0
97300	8.783745	0
97500	8.819685	0
97700	8.855698	0
97900	8.891784	0
98100	8.927944	0
98300	8.964178	0
98500	9.000484	0
98700	9.036864	0
98900	9.073318	0
99100	9.109845	0
99300	9.146445	0
99500	9.183118	0
99700	9.219865	0
99900	9.256686	0
100100	9.293579	0
100300	9.330546	0
100500	9.367587	0
100700	9.404701	0
100900	9.441888	0
101100	9.479148	0
101300	9.516482	0
101500	9.553890	0
101700	9.591370	0
101900	9.628924	0
102100	9.666552	0
102300	9.704253	0
102500	9.742027	0
102700	9.779874	0
102900	9.817795	0
103100	9.855790	0
103300	9.893857	0
103500	9.931998	0
103700	9.970213	0
103900	10.008501	2
104100	10.046862	0
104300	10.085296	0
104500	10.123804	0
104700	10.162386	0
104900	10.201040	0
105100	10.239768	0
105300	10.278570	0
105500	10.317445	0
105700	10.356393	0
105900	10.395414	0
106100	10.434509	0
106300	10.473678	0
106500	10.512919	0
106700	10.552235	0
106900	10.591623	0
107100	10.631085	0
107300	10.670620	0
107500	10.710229	0
107700	10.749911	0
107900	10.789666	0
108100	10.829495	0
108300	10.869397	0
108500	10.909372	0
108700	10.949421	0
108900	10.989543	4
109100	11.029739	2
109300	11.070008	0
109500	11.110350	0
109700	11.150766	0
109900	11.191255	0
110100	11.231818	0
110300	11.272453	0
110500	11.313163	0
110700	11.353945	0
110900	11.394801	0
111100	11.435731	0
111300	11.476733	0
111500	11.517809	0
111700	11.558959	0
111900	11.600182	0
112100	11.641478	0
112300	11.682848	0
112500	11.724291	0
112700	11.765807	1
112900	11.807397	0
113100	11.849060	0
113300	11.890796	0
113500	11.932606	0
113700	11.974490	130
113900	12.016446	2510
114100	12.058476	0
114300	12.100580	0
114500	12.142756	0
114700	12.185006	0
114900	12.227330	0
115100	12.269727	0
115300	12.312197	0
115500	12.354741	0
115700	12.397358	0
115900	12.440048	0
116100	12.482812	0
116300	12.525649	0
116500	12.568559	0
116700	12.611543	0
116900	12.654601	0
117100	12.697731	0
117300	12.740935	0
117500	12.784213	0
117700	12.827563	0
117900	12.870988	0
118100	12.914485	0
118300	12.958056	0
118500	13.001700	1200
118700	13.045418	5
118900	13.089209	0
119100	13.133073	1
119300	13.177011	0
119500	13.221022	0
119700	13.265107	0
119900	13.309265	0
120100	13.353496	0
120300	13.397801	0
120500	13.442179	0
120700	13.486630	0
120900	13.531155	0
121100	13.575753	0
121300	13.620425	0
121500	13.665169	0
121700	13.709988	0
121900	13.754879	0
122100	13.799844	0
122300	13.844883	0
122500	13.889995	0
122700	13.935180	0
122900	13.980438	3
123100	14.025770	1145
123300	14.071176	1
123500	14.116654	0
123700	14.162206	0
123900	14.207832	0
124100	14.253531	0
124300	14.299303	0
124500	14.345148	0
124700	14.391067	0
124900	14.437060	0
125100	14.483125	0
125300	14.529264	0
125500	14.575477	0
125700	14.621763	0
125900	14.668122	0
126100	14.714554	0
126300	14.761060	0
126500	14.807640	0
126700	14.854292	0
126900	14.901018	0
127100	14.947818	0
127300	14.994691	141
127500	15.041637	3251
127700	15.088656	3
127900	15.135749	0
128100	15.182916	0
128300	15.230155	0
128500	15.277468	0
128700	15.324855	0
128900	15.372315	0
129100	15.419848	0
129300	15.467454	0
129500	15.515134	0
129700	15.562888	0
129900	15.610714	0
130100	15.658614	0
130300	15.706588	0
130500	15.754635	0
130700	15.802755	0
130900	15.850949	0
131100	15.899216	0
131300	15.947556	0
131500	15.995970	65
131700	16.044457	53
131900	16.093017	0
132100	16.141651	0
132300	16.190358	0
132500	16.239139	0
132700	16.287993	0
132900	16.336920	0
133100	16.385921	0
133300	16.434995	0
133500	16.484142	0
133700	16.533363	0
133900	16.582657	0
134100	16.632025	0
134300	16.681466	0
134500	16.730980	0
134700	16.780568	0
134900	16.830229	0
135100	16.879964	0
135300	16.929772	1
135500	16.979653	40
135700	17.029607	60
135900	17.079635	0
136100	17.129737	0
136300	17.179912	0
136500	17.230160	0
136700	17.280481	0
136900	17.330876	0
137100	17.381344	0
137300	17.431886	0
137500	17.482501	0
137700	17.533189	0
137900	17.583951	0
138100	17.634786	0
138300	17.685695	0
138500	17.736676	0
138700	17.787732	0
138900	17.838860	0
139100	17.890062	0
139300	17.941338	0
139500	17.992686	54
139700	18.044109	828
139900	18.095604	2
140100	18.147173	0
140300	18.198815	2
140500	18.250531	0
140700	18.302320	0
140900	18.354182	0
141100	18.406118	0
141300	18.458127	0
141500	18.510210	0
141700	18.562366	0
141900	18.614595	0
142100	18.666898	1
142300	18.719274	1
142500	18.771723	0
142700	18.824246	0
142900	18.876842	0
143100	18.929511	0
143300	18.982254	11
143500	19.035071	241
143700	19.087960	1
143900	19.140923	0
144100	19.193960	0
144300	19.247069	0
144500	19.300253	0
144700	19.353509	0
144900	19.406839	0
145100	19.460242	0
145300	19.513719	0
145500	19.567269	0
145700	19.620892	0
145900	19.674589	0
146100	19.728359	0
146300	19.782203	0
146500	19.836120	0
146700	19.890110	0
146900	19.944174	0
147100	19.998311	2
147300	20.052521	0
147500	20.106805	0
147700	20.161162	0
147900	20.215593	0
148100	20.270097	0
148300	20.324674	0
148500	20.379325	0
148700	20.434049	0
148900	20.488846	0
149100	20.543717	0
149300	20.598661	0
149500	20.653679	1
149700	20.708770	0
149900	20.763934	1
150100	20.819172	0
150300	20.874483	2
150500	20.929867	0
150700	20.985325	1
150900	21.040856	0
151100	21.096461	0
151300	21.152139	0
151500	21.207890	1
151700	21.263715	0
151900	21.319613	0
152100	21.375584	0
152300	21.431629	1
152500	21.487747	0
152700	21.543939	0
152900	21.600204	4
153100	21.656542	6
153300	21.712954	0
153500	21.769439	0
153700	21.825997	0
153900	21.882629	0
154100	21.939334	0
154300	21.996113	0
154500	22.052965	0
154700	22.109890	0
154900	22.166889	0
155100	22.223961	0
155300	22.281106	0
155500	22.338325	0
155700	22.395617	0
155900	22.452983	1
156100	22.510422	0
156300	22.567934	49
156500	22.625520	5
156700	22.683179	8
156900	22.740912	8
157100	22.798718	2
157300	22.856597	24
157500	22.914549	181
157700	22.972575	635753
157900	23.030675	22512
158100	23.088847	1217
158300	23.147093	542
158500	23.205413	318
158700	23.263806	221
158900	23.322272	148
159100	23.380812	108
159300	23.439425	75
159500	23.498111	62
159700	23.556871	54
159900	23.615704	34
160100	23.674610	21
160300	23.733590	14
160500	23.792643	25
160700	23.851770	21
160900	23.910970	14
161100	23.970243	493
161300	24.029590	143
161500	24.089010	9
161700	24.148504	9
161900	24.208071	13
162100	24.267711	6
162300	24.327425	3
162500	24.387212	8
162700	24.447072	6
162900	24.507006	6
163100	24.567013	4
163300	24.627093	3
163500	24.687247	3
163700	24.747474	3
163900	24.807775	2
164100	24.868149	4
164300	24.928596	4
164500	24.989117	635
164700	25.049711	13
164900	25.110379	3
165100	25.171120	2
165300	25.231934	0
165500	25.292822	4
165700	25.353783	0
165900	25.414817	1
166100	25.475925	1
166300	25.537106	4
166500	25.598360	0
166700	25.659688	4
166900	25.721090	0
167100	25.782564	4
167300	25.844112	1
167500	25.905734	3
167700	25.967428	121
167900	26.029197	2185
168100	26.091038	1
168300	26.152953	0
168500	26.214941	4
168700	26.277003	0
168900	26.339138	0
169100	26.401346	0
169300	26.463628	0
169500	26.525983	2
169700	26.588412	0
169900	26.650914	1
170100	26.713489	3
170300	26.776138	1
170500	26.838860	0
170700	26.901655	2
170900	26.964524	579
171100	27.027466	11104
171300	27.090482	22
171500	27.153571	4
171700	27.216733	2
171900	27.279969	0
172100	27.343278	0
172300	27.406660	2
172500	27.470116	3
172700	27.533645	0
172900	27.597248	1
173100	27.660924	1
173300	27.724673	1
173500	27.788496	1
173700	27.852392	0
173900	27.916361	7
174100	27.980404	844
174300	28.044520	2166
174500	28.108710	2
174700	28.172973	0
174900	28.237309	4
175100	28.301719	0
175300	28.366202	1
175500	28.430758	1
175700	28.495388	1
175900	28.560091	1
176100	28.624868	2
176300	28.689718	0
176500	28.754641	1
176700	28.819638	0
176900	28.884708	3
177100	28.949851	92
177300	29.015068	11567
177500	29.080358	560
177700	29.145722	2
177900	29.211159	4
178100	29.276669	1
178300	29.342253	2
178500	29.407910	1
178700	29.473640	0
178900	29.539444	1
179100	29.605321	0
179300	29.671272	0
179500	29.737296	1
179700	29.803393	0
179900	29.869564	0
180100	29.935808	3
180300	30.002125	1160
180500	30.068516	840
180700	30.134981	0
180900	30.201518	0
181100	30.268129	3
181300	30.334813	2
181500	30.401571	1
181700	30.468402	0
181900	30.535307	0
182100	30.602285	4
182300	30.669336	0
182500	30.736460	2
182700	30.803658	1
182900	30.870930	0
183100	30.938274	2
183300	31.005693	1786
183500	31.073184	42
183700	31.140749	3
183900	31.208387	1
184100	31.276099	4
184300	31.343884	3
184500	31.411742	1
184700	31.479674	0
184900	31.547679	0
185100	31.615757	0
185300	31.683909	0
185500	31.752135	0
185700	31.820433	0
185900	31.888805	0
186100	31.957251	14
186300	32.025769	92
186500	32.094361	6
186700	32.163027	0
186900	32.231766	1
187100	32.300578	0
187300	32.369464	1
187500	32.438423	1
187700	32.507455	0
187900	32.576561	0
188100	32.645740	0
188300	32.714992	0
188500	32.784318	0
188700	32.853718	0
188900	32.923190	0
189100	32.992736	14
189300	33.062356	9
189500	33.132048	0
189700	33.201815	0
189900	33.271654	1
190100	33.341567	0
190300	33.411553	1
190500	33.481613	0
190700	33.551746	1
190900	33.621952	1
191100	33.692232	0
191300	33.762585	0
191500	33.833012	0
191700	33.903512	1
191900	33.974085	2
192100	34.044732	2
192300	34.115452	0
192500	34.186245	0
192700	34.257112	0
192900	34.328052	0
193100	34.399065	1
193300	34.470152	0
193500	34.541313	0
193700	34.612546	0
193900	34.683853	0
194100	34.755234	0
194300	34.826687	0
194500	34.898215	1
194700	34.969815	109
194900	35.041489	1
195100	35.113236	0
195300	35.185057	0
195500	35.256951	0
195700	35.328919	0
195900	35.400959	1
196100	35.473074	0
196300	35.545261	0
196500	35.617522	1
196700	35.689856	0
196900	35.762264	0
197100	35.834745	0
197300	35.907299	0
197500	35.979927	449
197700	36.052628	2
197900	36.125403	1
198100	36.198251	1
198300	36.271172	1
198500	36.344167	0
198700	36.417235	0
198900	36.490376	0
199100	36.563591	0
199300	36.636879	1
199500	36.710241	0
199700	36.783676	0
199900	36.857184	4
200100	36.930766	62
200300	37.004421	1971
200500	37.078149	6
200700	37.151951	3
200900	37.225826	2
201100	37.299775	1
201300	37.373797	0
201500	37.447892	0
201700	37.522061	2
201900	37.596303	1
202100	37.670619	0
202300	37.745007	2
202500	37.819470	1
202700	37.894005	2
202900	37.968614	257
203100	38.043296	2022
203300	38.118052	2
203500	38.192881	3
203700	38.267784	1
203900	38.342760	0
204100	38.417809	5
204300	38.492931	2
204500	38.568127	2
204700	38.643397	2
204900	38.718739	0
205100	38.794155	8
205300	38.869645	32
205500	38.945208	50213
205700	39.020844	12650
205900	39.096554	461
206100	39.172337	209
206300	39.248193	121
206500	39.324123	97
206700	39.400126	68
206900	39.476202	60
207100	39.552352	41
207300	39.628575	53
207500	39.704872	33
207700	39.781242	9
207900	39.857685	24
208100	39.934202	5827
208300	40.010792	3244
