# Binning: 200 channels
# Deadtime Correction: on
Channel	m/z	Intensity
100	0.000270	0
300	0.000501	0
500	0.000803	0
700	0.001175	0
900	0.001619	0
1100	0.002134	0
1300	0.002719	0
1500	0.003376	0
1700	0.004103	0
1900	0.004901	0
2100	0.005771	0
2300	0.006711	0
2500	0.007722	0
2700	0.008804	0
2900	0.009956	0
3100	0.011180	0
3300	0.012475	0
3500	0.013840	0
3700	0.015277	0
3900	0.016784	0
4100	0.018363	1
4300	0.020012	0
4500	0.021732	0
4700	0.023523	0
4900	0.025385	0
5100	0.027318	0
5300	0.029321	0
5500	0.031396	0
5700	0.033542	0
5900	0.035758	0
6100	0.038045	0
6300	0.040404	0
6500	0.042833	0
6700	0.045333	0
6900	0.047904	0
7100	0.050546	0
7300	0.053259	0
7500	0.056043	0
7700	0.058897	0
7900	0.061823	0
8100	0.064819	0
8300	0.067887	0
8500	0.071025	0
8700	0.074234	0
8900	0.077515	0
9100	0.080866	0
9300	0.084288	0
9500	0.087780	0
9700	0.091344	0
9900	0.094979	0
10100	0.098685	0
10300	0.102461	0
10500	0.106308	0
10700	0.110227	0
10900	0.114216	0
11100	0.118276	0
11300	0.122407	0
11500	0.126609	0
11700	0.130882	0
11900	0.135226	1
12100	0.139641	0
12300	0.144126	0
12500	0.148683	0
12700	0.153310	0
12900	0.158008	0
13100	0.162778	0
13300	0.167618	0
13500	0.172529	0
13700	0.177511	0
13900	0.182564	0
14100	0.187688	0
14300	0.192882	0
14500	0.198148	0
14700	0.203484	0
14900	0.208892	0
15100	0.214370	0
15300	0.219920	0
15500	0.225540	0
15700	0.231231	0
15900	0.236993	0
16100	0.242826	0
16300	0.248730	0
16500	0.254704	0
16700	0.260750	0
16900	0.266866	0
17100	0.273054	0
17300	0.279312	0
17500	0.285642	0
17700	0.292042	0
17900	0.298513	0
18100	0.305055	0
18300	0.311668	0
18500	0.318352	0
18700	0.325106	0
18900	0.331932	0
19100	0.338829	0
19300	0.345796	0
19500	0.352834	0
19700	0.359944	0
19900	0.367124	0
20100	0.374375	0
20300	0.381697	0
20500	0.389090	0
20700	0.396554	0
20900	0.404088	1
21100	0.411694	0
21300	0.419371	0
21500	0.427118	0
21700	0.434937	0
21900	0.442826	0
22100	0.450786	0
22300	0.458817	0
22500	0.466919	0
22700	0.475092	0
22900	0.483336	0
23100	0.491651	0
23300	0.500036	0
23500	0.508493	0
23700	0.517021	0
23900	0.525619	0
24100	0.534288	0
24300	0.543028	0
24500	0.551840	0
24700	0.560722	0
24900	0.569675	0
25100	0.578698	1
25300	0.587793	0
25500	0.596959	0
25700	0.606196	0
25900	0.615503	0
26100	0.624881	0
26300	0.634331	0
26500	0.643851	0
26700	0.653442	0
26900	0.663104	0
27100	0.672837	0
27300	0.682641	0
27500	0.692516	0
27700	0.702462	0
27900	0.712478	0
28100	0.722566	0
28300	0.732724	0
28500	0.742953	0
28700	0.753254	0
28900	0.763625	0
29100	0.774067	0
29300	0.784580	0
29500	0.795164	0
29700	0.805819	0
29900	0.816544	0
30100	0.827341	0
30300	0.838208	0
30500	0.849147	0
30700	0.860156	0
30900	0.871236	0
31100	0.882388	0
31300	0.893610	0
31500	0.904903	0
31700	0.916267	0
31900	0.927701	0
32100	0.939207	0
32300	0.950784	0
32500	0.962431	2
32700	0.974150	1
32900	0.985939	0
33100	0.997799	0
33300	1.009731	14411
33500	1.021733	6
33700	1.033806	0
33900	1.045950	0
34100	1.058164	0
34300	1.070450	1
34500	1.082807	0
34700	1.095234	1
34900	1.107733	0
35100	1.120302	0
35300	1.132943	0
35500	1.145654	0
35700	1.158436	0
35900	1.171289	0
36100	1.184213	0
36300	1.197208	0
36500	1.210273	0
36700	1.223410	0
36900	1.236618	0
37100	1.249896	0
37300	1.263245	0
37500	1.276666	0
37700	1.290157	0
37900	1.303719	0
38100	1.317352	0
38300	1.331056	0
38500	1.344831	0
38700	1.358677	0
38900	1.372593	0
39100	1.386581	0
39300	1.400639	0
39500	1.414769	0
39700	1.428969	0
39900	1.443240	0
40100	1.457582	0
40300	1.471995	0
40500	1.486479	0
40700	1.501034	0
40900	1.515660	0
41100	1.530357	1
41300	1.545124	0
41500	1.559963	0
41700	1.574872	0
41900	1.589853	0
42100	1.604904	0
42300	1.620026	0
42500	1.635219	0
42700	1.650483	0
42900	1.665818	0
43100	1.681224	0
43300	1.696700	0
43500	1.712248	0
43700	1.727866	0
43900	1.743556	0
44100	1.759316	0
44300	1.775147	0
44500	1.791050	0
44700	1.807023	0
44900	1.823067	0
45100	1.839181	0
45300	1.855367	0
45500	1.871624	0
45700	1.887952	1
45900	1.904350	0
46100	1.920820	0
46300	1.937360	0
46500	1.953971	0
46700	1.970653	0
46900	1.987406	0
47100	2.004230	0
47300	2.021125	546
47500	2.038091	0
47700	2.055128	0
47900	2.072235	0
48100	2.089414	0
48300	2.106663	0
48500	2.123984	0
48700	2.141375	0
48900	2.158837	0
49100	2.176370	0
49300	2.193974	0
49500	2.211649	0
49700	2.229395	0
49900	2.247212	0
50100	2.265099	1
50300	2.283058	0
50500	2.301087	0
50700	2.319188	0
50900	2.337359	0
51100	2.355601	0
51300	2.373914	0
51500	2.392298	0
51700	2.410753	0
51900	2.429279	0
52100	2.447876	0
52300	2.466544	0
52500	2.485282	0
52700	2.504092	0
52900	2.522972	0
53100	2.541923	0
53300	2.560945	0
53500	2.580039	0
53700	2.599203	0
53900	2.618438	0
54100	2.637743	0
54300	2.657120	0
54500	2.676568	0
54700	2.696086	0
54900	2.715676	0
55100	2.735336	0
55300	2.755068	0
55500	2.774870	0
55700	2.794743	0
55900	2.814687	0
56100	2.834702	0
56300	2.854788	0
56500	2.874945	0
56700	2.895172	0
56900	2.915471	0
57100	2.935840	0
57300	2.956281	0
57500	2.976792	0
57700	2.997374	0
57900	3.018027	155
58100	3.038751	0
58300	3.059546	0
58500	3.080412	0
58700	3.101349	0
58900	3.122357	0
59100	3.143435	0
59300	3.164585	0
59500	3.185805	0
59700	3.207097	0
59900	3.228459	0
60100	3.249892	0
60300	3.271396	0
60500	3.292971	0
60700	3.314617	0
60900	3.336334	0
61100	3.358121	0
61300	3.379980	0
61500	3.401910	0
61700	3.423910	0
61900	3.445981	0
62100	3.468124	0
62300	3.490337	0
62500	3.512621	0
62700	3.534976	0
62900	3.557402	0
63100	3.579898	0
63300	3.602466	0
63500	3.625105	0
63700	3.647814	0
63900	3.670595	0
64100	3.693446	0
64300	3.716368	0
64500	3.739362	0
64700	3.762426	0
64900	3.785561	0
65100	3.808767	0
65300	3.832043	0
65500	3.855391	0
65700	3.878810	0
65900	3.902299	0
66100	3.925860	0
66300	3.949491	0
66500	3.973193	0
66700	3.996967	0
66900	4.020811	0
67100	4.044726	0
67300	4.068712	0
67500	4.092768	0
67700	4.116896	0
67900	4.141095	0
68100	4.165364	0
68300	4.189705	0
68500	4.214116	0
68700	4.238599	0
68900	4.263152	0
69100	4.287776	0
69300	4.312471	0
69500	4.337237	0
69700	4.362074	0
69900	4.386981	0
70100	4.411960	0
70300	4.437010	0
70500	4.462130	0
70700	4.487322	0
70900	4.512584	0
71100	4.537917	0
71300	4.563321	0
71500	4.588796	0
71700	4.614342	0
71900	4.639959	0
72100	4.665647	0
72300	4.691405	0
72500	4.717235	0
72700	4.743136	0
72900	4.769107	0
73100	4.795149	0
73300	4.821262	0
73500	4.847447	0
73700	4.873702	0
73900	4.900028	0
74100	4.926424	0
74300	4.952892	0
74500	4.979431	0
74700	5.006041	0
74900	5.032721	0
75100	5.059472	0
75300	5.086295	0
75500	5.113188	0
75700	5.140152	0
75900	5.167187	0
76100	5.194293	0
76300	5.221470	0
76500	5.248718	0
76700	5.276037	0
76900	5.303426	0
77100	5.330887	0
77300	5.358418	0
77500	5.386020	0
77700	5.413694	0
77900	5.441438	0
78100	5.469253	0
78300	5.497139	0
78500	5.525096	0
78700	5.553124	0
78900	5.581222	0
79100	5.609392	0
79300	5.637632	0
79500	5.665944	0
79700	5.694326	0
79900	5.722780	0
80100	5.751304	0
80300	5.779899	0
80500	5.808565	0
80700	5.837302	0
80900	5.866110	0
81100	5.894988	0
81300	5.923938	0
81500	5.952958	0
81700	5.982050	0
81900	6.011212	156
82100	6.040446	3
82300	6.069750	1
82500	6.099125	0
82700	6.128571	0
82900	6.158088	0
83100	6.187676	0
83300	6.217334	0
83500	6.247064	0
83700	6.276864	0
83900	6.306736	0
84100	6.336678	0
84300	6.366692	0
84500	6.396776	0
84700	6.426931	0
84900	6.457157	0
85100	6.487454	1
85300	6.517822	0
85500	6.548260	0
85700	6.578770	0
85900	6.609351	0
86100	6.640002	0
86300	6.670725	0
86500	6.701518	0
86700	6.732382	0
86900	6.763317	0
87100	6.794323	0
87300	6.825400	0
87500	6.856548	0
87700	6.887767	0
87900	6.919056	0
88100	6.950417	0
88300	6.981848	0
88500	7.013351	1817
88700	7.044924	28
88900	7.076568	7
89100	7.108284	2
89300	7.140070	0
89500	7.171927	0
89700	7.203854	0
89900	7.235853	0
90100	7.267923	1
90300	7.300063	0
90500	7.332275	0
90700	7.364557	0
90900	7.396911	0
91100	7.429335	0
91300	7.461830	0
91500	7.494396	0
91700	7.527033	0
91900	7.559741	0
92100	7.592520	0
92300	7.625369	0
92500	7.658290	0
92700	7.691282	0
92900	7.724344	0
93100	7.757477	0
93300	7.790682	0
93500	7.823957	0
93700	7.857303	0
93900	7.890720	0
94100	7.924208	0
94300	7.957766	0
94500	7.991396	0
94700	8.025097	2
94900	8.058868	1
95100	8.092711	0
95300	8.126624	0
95500	8.160608	0
95700	8.194664	0
95900	8.228790	0
96100	8.262987	0
96300	8.297255	0
96500	8.331593	0
96700	8.366003	0
96900	8.400484	0
97100	8.435035	0
97300	8.469658	0
97500	8.504351	0
97700	8.539115	0
97900	8.573950	0
98100	8.608857	0
98300	8.643834	0
98500	8.678881	0
98700	8.714000	0
98900	8.749190	0
99100	8.784451	0
99300	8.819782	0
99500	8.855185	0
99700	8.890658	0
99900	8.926202	0
100100	8.961818	0
100300	8.997504	0
100500	9.033261	0
100700	9.069089	0
100900	9.104987	0
101100	9.140957	0
101300	9.176998	0
101500	9.213109	0
101700	9.249292	0
101900	9.285545	0
102100	9.321870	0
102300	9.358265	0
102500	9.394731	0
102700	9.431268	0
102900	9.467876	0
103100	9.504555	0
103300	9.541304	0
103500	9.578125	0
103700	9.615017	0
103900	9.651979	0
104100	9.689013	0
104300	9.726117	0
104500	9.763292	0
104700	9.800538	0
104900	9.837855	0
105100	9.875243	0
105300	9.912702	0
105500	9.950232	0
105700	9.987833	0
105900	10.025504	142
106100	10.063247	0
106300	10.101060	0
106500	10.138944	0
106700	10.176900	0
106900	10.214926	0
107100	10.253023	0
107300	10.291191	0
107500	10.329430	0
107700	10.367739	0
107900	10.406120	0
108100	10.444572	0
108300	10.483094	0
108500	10.521688	0
108700	10.560352	0
108900	10.599087	0
109100	10.637893	0
109300	10.676770	0
109500	10.715718	0
109700	10.754737	0
109900	10.793827	0
110100	10.832988	0
110300	10.872219	0
110500	10.911522	0
110700	10.950895	0
110900	10.990340	413
111100	11.029855	93
111300	11.069441	0
111500	11.109098	0
111700	11.148826	1
111900	11.188625	0
112100	11.228495	0
112300	11.268436	0
112500	11.308447	0
112700	11.348530	0
112900	11.388683	0
113100	11.428908	0
113300	11.469203	0
113500	11.509569	0
113700	11.550006	0
113900	11.590514	0
114100	11.631093	0
114300	11.671743	0
114500	11.712464	0
114700	11.753255	1
114900	11.794118	0
115100	11.835051	0
115300	11.876056	0
115500	11.917131	0
115700	11.958277	16
115900	11.999494	10499
116100	12.040782	9
116300	12.082141	0
116500	12.123571	0
116700	12.165072	0
116900	12.206643	0
117100	12.248286	0
117300	12.289999	0
117500	12.331784	1
117700	12.373639	0
117900	12.415565	1
118100	12.457562	0
118300	12.499630	0
118500	12.541769	1
118700	12.583979	0
118900	12.626260	0
119100	12.668612	0
119300	12.711034	0
119500	12.753528	0
119700	12.796092	0
119900	12.838727	0
120100	12.881434	0
120300	12.924211	1
120500	12.967059	6
120700	13.009978	5440
120900	13.052967	3
121100	13.096028	0
121300	13.139160	0
121500	13.182363	0
121700	13.225636	1
121900	13.268980	0
122100	13.312396	0
122300	13.355882	0
122500	13.399439	0
122700	13.443067	0
122900	13.486766	0
123100	13.530536	0
123300	13.574377	0
123500	13.618288	0
123700	13.662271	0
123900	13.706325	0
124100	13.750449	0
124300	13.794644	0
124500	13.838911	0
124700	13.883248	0
124900	13.927656	0
125100	13.972135	3
125300	14.016685	8550
125500	14.061305	2
125700	14.105997	0
125900	14.150760	0
126100	14.195593	0
126300	14.240498	0
126500	14.285473	0
126700	14.330519	0
126900	14.375636	0
127100	14.420824	0
127300	14.466083	0
127500	14.511413	0
127700	14.556814	0
127900	14.602286	0
128100	14.647829	0
128300	14.693442	0
128500	14.739126	0
128700	14.784882	0
128900	14.830708	0
129100	14.876605	4
129300	14.922573	0
129500	14.968612	1
129700	15.014722	44990
129900	15.060903	41
130100	15.107155	8
130300	15.153477	5
130500	15.199871	3
130700	15.246335	5
130900	15.292871	3
131100	15.339477	2
131300	15.386154	1
131500	15.432902	2
131700	15.479721	1
131900	15.526611	2
132100	15.573572	0
132300	15.620604	2
132500	15.667707	3
132700	15.714880	0
132900	15.762125	1
133100	15.809440	0
133300	15.856826	0
133500	15.904283	0
133700	15.951812	0
133900	15.999411	766
134100	16.047080	794
134300	16.094821	2
134500	16.142633	0
134700	16.190516	0
134900	16.238469	0
135100	16.286494	0
135300	16.334589	0
135500	16.382755	0
135700	16.430993	0
135900	16.479301	0
136100	16.527680	0
136300	16.576130	0
136500	16.624651	0
136700	16.673242	0
136900	16.721905	0
137100	16.770639	0
137300	16.819443	0
137500	16.868319	0
137700	16.917265	0
137900	16.966282	0
138100	17.015370	1346
138300	17.064529	14
138500	17.113759	0
138700	17.163060	0
138900	17.212432	0
139100	17.261875	0
139300	17.311388	0
139500	17.360973	0
139700	17.410628	0
139900	17.460354	0
140100	17.510152	0
140300	17.560020	0
140500	17.609959	0
140700	17.659969	0
140900	17.710050	0
141100	17.760201	0
141300	17.810424	0
141500	17.860718	0
141700	17.911082	0
141900	17.961518	0
142100	18.012024	8763
142300	18.062601	1751
142500	18.113249	15
142700	18.163969	7
142900	18.214758	0
143100	18.265619	2
143300	18.316551	0
143500	18.367554	1
143700	18.418628	0
143900	18.469772	0
144100	18.520987	0
144300	18.572274	0
144500	18.623631	1
144700	18.675059	1
144900	18.726558	2
145100	18.778128	1
145300	18.829769	0
145500	18.881481	0
145700	18.933264	0
145900	18.985117	144
146100	19.037042	4772
146300	19.089037	3
146500	19.141104	1
146700	19.193241	1
146900	19.245449	1
147100	19.297728	0
147300	19.350078	2
147500	19.402499	0
147700	19.454991	0
147900	19.507554	0
148100	19.560187	0
148300	19.612892	1
148500	19.665667	1
148700	19.718514	2
148900	19.771431	0
149100	19.824419	0
149300	19.877478	0
149500	19.930608	0
149700	19.983809	29
149900	20.037081	7
150100	20.090424	0
150300	20.143838	0
150500	20.197322	1
150700	20.250878	0
150900	20.304504	1
151100	20.358201	0
151300	20.411970	0
151500	20.465809	1
151700	20.519719	2
151900	20.573700	0
152100	20.627751	0
152300	20.681874	0
152500	20.736068	2
152700	20.790333	1
152900	20.844668	1
153100	20.899074	0
153300	20.953552	2
153500	21.008100	13
153700	21.062719	2
153900	21.117409	0
154100	21.172170	0
154300	21.227002	0
154500	21.281905	1
154700	21.336878	1
154900	21.391923	1
155100	21.447038	2
155300	21.502225	1
155500	21.557482	2
155700	21.612810	0
155900	21.668210	0
156100	21.723680	0
156300	21.779221	2
156500	21.834832	1
156700	21.890515	0
156900	21.946269	1
157100	22.002094	1
157300	22.057989	1
157500	22.113955	0
157700	22.169993	0
157900	22.226101	0
158100	22.282280	0
158300	22.338530	1
158500	22.394851	0
158700	22.451243	0
158900	22.507706	0
159100	22.564240	0
159300	22.620844	1
159500	22.677520	5
159700	22.734266	1
159900	22.791084	143
160100	22.847972	21
160300	22.904931	32
160500	22.961961	1114545
160700	23.019062	2359712
160900	23.076234	2241
161100	23.133477	3166
161300	23.190790	3475
161500	23.248175	3188
161700	23.305631	2326
161900	23.363157	1741
162100	23.420754	1346
162300	23.478423	1001
162500	23.536162	769
162700	23.593972	662
162900	23.651853	505
163100	23.709805	434
163300	23.767828	375
163500	23.825921	301
163700	23.884086	251
163900	23.942322	234
164100	24.000628	2780
164300	24.059006	182
164500	24.117454	148
164700	24.175973	128
164900	24.234563	140
165100	24.293224	103
165300	24.351956	78
165500	24.410759	85
165700	24.469633	73
165900	24.528577	56
166100	24.587593	59
166300	24.646679	44
166500	24.705837	50
166700	24.765065	45
166900	24.824364	30
167100	24.883734	47
167300	24.943175	41
167500	25.002687	2444
167700	25.062270	31
167900	25.121924	28
168100	25.181649	26
168300	25.241444	32
168500	25.301311	24
168700	25.361248	28
168900	25.421256	19
169100	25.481336	22
169300	25.541486	14
169500	25.601707	15
169700	25.661999	15
169900	25.722361	17
170100	25.782795	11
170300	25.843300	14
170500	25.903876	23
170700	25.964522	796
170900	26.025239	13258
171100	26.086028	12
171300	26.146887	11
171500	26.207817	11
171700	26.268818	6
171900	26.329890	7
172100	26.391033	11
172300	26.452247	11
172500	26.513531	8
172700	26.574887	11
172900	26.636314	8
173100	26.697811	8
173300	26.759379	3
173500	26.821019	20
173700	26.882729	2
173900	26.944510	1510
174100	27.006362	130510
174300	27.068285	685
174500	27.130278	44
174700	27.192343	21
174900	27.254479	27
175100	27.316685	19
175300	27.378963	15
175500	27.441311	12
175700	27.503730	12
175900	27.566220	11
176100	27.628782	19
176300	27.691414	6
176500	27.754116	8
176700	27.816890	11
176900	27.879735	20
177100	27.942651	10361
177300	28.005637	43733
177500	28.068695	1358
177700	28.131823	25
177900	28.195022	15
178100	28.258292	14
178300	28.321633	11
178500	28.385045	11
178700	28.448528	11
178900	28.512082	8
179100	28.575707	5
179300	28.639403	6
179500	28.703169	9
179700	28.767007	17
179900	28.830915	45
180100	28.894894	19
180300	28.958944	4963
180500	29.023065	195959
180700	29.087257	929
180900	29.151520	112
181100	29.215854	43
181300	29.280259	28
181500	29.344735	50
181700	29.409281	26
181900	29.473899	18
182100	29.538587	15
182300	29.603346	14
182500	29.668177	14
182700	29.733078	28
182900	29.798050	25
183100	29.863093	17
183300	29.928206	29
183500	29.993391	3834
183700	30.058647	12965
183900	30.123973	14
184100	30.189371	12
184300	30.254839	6
184500	30.320379	6
184700	30.385989	5
184900	30.451670	13
185100	30.517422	6
185300	30.583245	11
185500	30.649139	11
185700	30.715104	5
185900	30.781139	10
186100	30.847246	12
186300	30.913423	13
186500	30.979672	3723
186700	31.045991	54088
186900	31.112381	41
187100	31.178842	53
187300	31.245374	110
187500	31.311977	27
187700	31.378651	12
187900	31.445396	19
188100	31.512212	48
188300	31.579098	48
188500	31.646056	10
188700	31.713084	5
188900	31.780184	6
189100	31.847354	3
189300	31.914595	7
189500	31.981907	261
189700	32.049290	1457
189900	32.116744	5
190100	32.184269	5
190300	32.251864	7
190500	32.319531	6
190700	32.387268	7
190900	32.455077	6
191100	32.522956	6
191300	32.590907	1
191500	32.658928	4
191700	32.727020	2
191900	32.795183	3
192100	32.863417	2
192300	32.931721	0
192500	33.000097	477
192700	33.068544	184
192900	33.137061	3
193100	33.205650	2
193300	33.274309	3
193500	33.343039	4
193700	33.411841	17
193900	33.480713	7
194100	33.549656	2
194300	33.618669	3
194500	33.687754	1
194700	33.756910	1
194900	33.826137	1
195100	33.895434	2
195300	33.964803	9
195500	34.034242	54
195700	34.103752	2
195900	34.173333	2
196100	34.242986	1
196300	34.312709	5
196500	34.382503	4
196700	34.452367	1
196900	34.522303	1
197100	34.592310	1
197300	34.662387	1
197500	34.732536	5
197700	34.802755	1
197900	34.873045	4
198100	34.943407	89
198300	35.013839	376
198500	35.084342	3
198700	35.154916	3
198900	35.225561	1
199100	35.296276	4
199300	35.367063	1
199500	35.437920	1
199700	35.508849	4
199900	35.579848	2
200100	35.650919	4
200300	35.722060	1
200500	35.793272	4
200700	35.864555	3
200900	35.935909	15
201100	36.007334	1040
201300	36.078830	5
201500	36.150396	1
201700	36.222034	2
201900	36.293742	6
202100	36.365522	4
202300	36.437372	4
202500	36.509293	4
202700	36.581285	7
202900	36.653348	1
203100	36.725482	5
203300	36.797687	5
203500	36.869963	15
203700	36.942310	433
203900	37.014727	5332
204100	37.087216	7
204300	37.159775	4
204500	37.232406	9
204700	37.305107	6
204900	37.377879	8
205100	37.450722	7
205300	37.523636	7
205500	37.596621	6
205700	37.669677	3
205900	37.742803	6
206100	37.816001	3
206300	37.889269	12
206500	37.962609	554
206700	38.036019	9339
206900	38.109500	10
