# Binning: 200 channels
# Deadtime Correction: on
Channel	m/z	Intensity
100	0.000268	0
300	0.000501	0
500	0.000804	0
700	0.001180	0
900	0.001627	0
1100	0.002146	0
1300	0.002737	0
1500	0.003400	0
1700	0.004134	0
1900	0.004940	0
2100	0.005818	0
2300	0.006767	0
2500	0.007789	0
2700	0.008882	0
2900	0.010046	0
3100	0.011283	0
3300	0.012591	0
3500	0.013971	0
3700	0.015423	0
3900	0.016946	0
4100	0.018541	0
4300	0.020208	0
4500	0.021947	0
4700	0.023757	0
4900	0.025639	0
5100	0.027593	0
5300	0.029618	0
5500	0.031716	0
5700	0.033885	0
5900	0.036126	0
6100	0.038438	0
6300	0.040822	0
6500	0.043278	0
6700	0.045806	0
6900	0.048406	0
7100	0.051077	0
7300	0.053820	0
7500	0.056634	0
7700	0.059521	0
7900	0.062479	0
8100	0.065509	0
8300	0.068610	0
8500	0.071784	0
8700	0.075029	0
8900	0.078346	0
9100	0.081734	0
9300	0.085195	0
9500	0.088727	0
9700	0.092331	0
9900	0.096006	0
10100	0.099753	0
10300	0.103572	0
10500	0.107463	0
10700	0.111426	0
10900	0.115460	0
11100	0.119566	0
11300	0.123744	0
11500	0.127993	0
11700	0.132314	0
11900	0.136707	0
12100	0.141172	0
12300	0.145708	0
12500	0.150316	0
12700	0.154996	0
12900	0.159748	0
13100	0.164571	0
13300	0.169466	0
13500	0.174433	0
13700	0.179471	0
13900	0.184582	0
14100	0.189764	0
14300	0.195017	0
14500	0.200343	0
14700	0.205740	0
14900	0.211209	0
15100	0.216750	0
15300	0.222362	0
15500	0.228047	0
15700	0.233802	0
15900	0.239630	0
16100	0.245530	0
16300	0.251501	0
16500	0.257544	0
16700	0.263658	0
16900	0.269845	0
17100	0.276103	0
17300	0.282432	0
17500	0.288834	0
17700	0.295307	0
17900	0.301852	0
18100	0.308469	0
18300	0.315158	0
18500	0.321918	0
18700	0.328750	0
18900	0.335654	0
19100	0.342629	0
19300	0.349676	0
19500	0.356795	0
19700	0.363986	0
19900	0.371248	0
20100	0.378582	0
20300	0.385988	0
20500	0.393466	0
20700	0.401015	0
20900	0.408636	0
21100	0.416329	0
21300	0.424094	0
21500	0.431930	0
21700	0.439838	0
21900	0.447818	0
22100	0.455870	0
22300	0.463993	0
22500	0.472188	0
22700	0.480455	0
22900	0.488793	0
23100	0.497203	0
23300	0.505685	0
23500	0.514239	0
23700	0.522864	0
23900	0.531562	0
24100	0.540330	0
24300	0.549171	0
24500	0.558083	0
24700	0.567068	0
24900	0.576123	0
25100	0.585251	0
25300	0.594450	0
25500	0.603721	0
25700	0.613064	0
25900	0.622479	1
26100	0.631965	0
26300	0.641523	0
26500	0.651153	0
26700	0.660854	0
26900	0.670628	0
27100	0.680473	0
27300	0.690389	0
27500	0.700378	0
27700	0.710438	0
27900	0.720570	0
28100	0.730774	0
28300	0.741049	0
28500	0.751396	0
28700	0.761815	0
28900	0.772306	0
29100	0.782868	0
29300	0.793502	0
29500	0.804208	0
29700	0.814985	0
29900	0.825835	0
30100	0.836756	0
30300	0.847748	0
30500	0.858813	0
30700	0.869949	0
30900	0.881157	0
31100	0.892437	0
31300	0.903788	0
31500	0.915212	0
31700	0.926707	0
31900	0.938273	0
32100	0.949912	0
32300	0.961622	0
32500	0.973404	0
32700	0.985257	0
32900	0.997183	0
33100	1.009180	7181
33300	1.021249	3
33500	1.033389	0
33700	1.045602	0
33900	1.057886	0
34100	1.070241	0
34300	1.082669	0
34500	1.095168	0
34700	1.107739	0
34900	1.120382	0
35100	1.133096	0
35300	1.145883	0
35500	1.158741	0
35700	1.171670	0
35900	1.184672	0
36100	1.197745	0
36300	1.210890	0
36500	1.224106	0
36700	1.237395	0
36900	1.250755	0
37100	1.264187	0
37300	1.277690	0
37500	1.291266	0
37700	1.304913	0
37900	1.318632	0
38100	1.332422	0
38300	1.346284	0
38500	1.360218	0
38700	1.374224	0
38900	1.388302	0
39100	1.402451	0
39300	1.416672	0
39500	1.430965	0
39700	1.445329	0
39900	1.459765	0
40100	1.474273	0
40300	1.488853	0
40500	1.503504	0
40700	1.518227	0
40900	1.533022	0
41100	1.547889	0
41300	1.562827	0
41500	1.577837	0
41700	1.592919	0
41900	1.608073	0
42100	1.623298	0
42300	1.638595	0
42500	1.653964	0
42700	1.669404	0
42900	1.684916	0
43100	1.700500	0
43300	1.716156	0
43500	1.731884	0
43700	1.747683	0
43900	1.763554	0
44100	1.779496	0
44300	1.795511	0
44500	1.811597	0
44700	1.827755	0
44900	1.843984	1
45100	1.860286	0
45300	1.876659	0
45500	1.893104	0
45700	1.909620	0
45900	1.926209	0
46100	1.942869	0
46300	1.959601	0
46500	1.976404	0
46700	1.993279	0
46900	2.010226	260
47100	2.027245	0
47300	2.044336	0
47500	2.061498	0
47700	2.078732	0
47900	2.096037	1
48100	2.113415	0
48300	2.130864	0
48500	2.148385	0
48700	2.165978	0
48900	2.183642	0
49100	2.201378	0
49300	2.219186	0
49500	2.237065	0
49700	2.255017	0
49900	2.273040	0
50100	2.291135	0
50300	2.309301	0
50500	2.327539	0
50700	2.345849	0
50900	2.364231	1
51100	2.382685	0
51300	2.401210	0
51500	2.419807	0
51700	2.438476	0
51900	2.457216	0
52100	2.476028	0
52300	2.494912	0
52500	2.513868	0
52700	2.532895	0
52900	2.551994	0
53100	2.571165	0
53300	2.590408	0
53500	2.609722	0
53700	2.629108	0
53900	2.648566	0
54100	2.668096	0
54300	2.687697	0
54500	2.707370	0
54700	2.727115	0
54900	2.746931	0
55100	2.766819	0
55300	2.786779	0
55500	2.806811	0
55700	2.826915	0
55900	2.847090	0
56100	2.867337	0
56300	2.887655	0
56500	2.908046	0
56700	2.928508	0
56900	2.949042	0
57100	2.969647	0
57300	2.990325	0
57500	3.011074	1
57700	3.031895	51
57900	3.052787	0
58100	3.073752	0
58300	3.094788	0
58500	3.115895	0
58700	3.137075	0
58900	3.158326	0
59100	3.179649	0
59300	3.201044	0
59500	3.222510	0
59700	3.244049	0
59900	3.265659	0
60100	3.287340	0
60300	3.309094	0
60500	3.330919	0
60700	3.352816	0
60900	3.374784	0
61100	3.396825	0
61300	3.418937	0
61500	3.441121	0
61700	3.463376	0
61900	3.485704	0
62100	3.508103	0
62300	3.530574	0
62500	3.553116	0
62700	3.575730	0
62900	3.598416	0
63100	3.621174	0
63300	3.644004	0
63500	3.666905	0
63700	3.689878	0
63900	3.712923	0
64100	3.736039	0
64300	3.759227	0
64500	3.782487	0
64700	3.805819	0
64900	3.829222	0
65100	3.852697	0
65300	3.876244	0
65500	3.899863	0
65700	3.923553	0
65900	3.947315	0
66100	3.971149	0
66300	3.995055	0
66500	4.019032	0
66700	4.043081	0
66900	4.067202	0
67100	4.091394	0
67300	4.115658	0
67500	4.139994	0
67700	4.164402	0
67900	4.188881	0
68100	4.213433	0
68300	4.238056	0
68500	4.262750	0
68700	4.287517	0
68900	4.312355	0
69100	4.337265	0
69300	4.362246	0
69500	4.387300	0
69700	4.412425	0
69900	4.437622	0
70100	4.462890	0
70300	4.488230	0
70500	4.513643	0
70700	4.539126	0
70900	4.564682	0
71100	4.590309	0
71300	4.616008	0
71500	4.641779	0
71700	4.667621	0
71900	4.693536	0
72100	4.719521	0
72300	4.745579	0
72500	4.771709	0
72700	4.797910	0
72900	4.824183	0
73100	4.850527	0
73300	4.876944	0
73500	4.903432	0
73700	4.929992	0
73900	4.956623	0
74100	4.983326	0
74300	5.010102	0
74500	5.036948	0
74700	5.063867	0
74900	5.090857	0
75100	5.117919	0
75300	5.145053	0
75500	5.172258	0
75700	5.199536	0
75900	5.226885	0
76100	5.254305	0
76300	5.281798	0
76500	5.309362	0
76700	5.336998	0
76900	5.364705	0
77100	5.392485	0
77300	5.420336	0
77500	5.448259	0
77700	5.476253	0
77900	5.504320	0
78100	5.532458	0
78300	5.560668	0
78500	5.588949	0
78700	5.617303	0
78900	5.645728	0
79100	5.674224	0
79300	5.702793	0
79500	5.731433	0
79700	5.760145	0
79900	5.788929	0
80100	5.817784	0
80300	5.846711	0
80500	5.875710	0
80700	5.904781	0
80900	5.933923	0
81100	5.963138	0
81300	5.992423	0
81500	6.021781	77
81700	6.051210	1
81900	6.080711	0
82100	6.110284	0
82300	6.139929	0
82500	6.169645	0
82700	6.199433	0
82900	6.229293	0
83100	6.259225	1
83300	6.289228	0
83500	6.319303	0
83700	6.349449	0
83900	6.379668	0
84100	6.409958	0
84300	6.440320	0
84500	6.470754	0
84700	6.501259	0
84900	6.531836	0
85100	6.562485	0
85300	6.593206	0
85500	6.623998	0
85700	6.654862	0
85900	6.685798	0
86100	6.716806	0
86300	6.747885	0
86500	6.779036	0
86700	6.810259	0
86900	6.841553	0
87100	6.872920	0
87300	6.904358	0
87500	6.935868	0
87700	6.967449	0
87900	6.999102	386
88100	7.030827	568
88300	7.062624	3
88500	7.094492	0
88700	7.126432	0
88900	7.158444	0
89100	7.190528	0
89300	7.222683	0
89500	7.254911	2
89700	7.287209	0
89900	7.319580	0
90100	7.352022	1
90300	7.384536	0
90500	7.417122	0
90700	7.449780	0
90900	7.482509	0
91100	7.515310	0
91300	7.548183	0
91500	7.581127	0
91700	7.614144	0
91900	7.647232	0
92100	7.680391	0
92300	7.713623	0
92500	7.746926	0
92700	7.780301	1
92900	7.813748	0
93100	7.847266	0
93300	7.880856	0
93500	7.914518	0
93700	7.948252	0
93900	7.982057	1
94100	8.015934	0
94300	8.049883	0
94500	8.083903	0
94700	8.117996	0
94900	8.152160	0
95100	8.186395	0
95300	8.220703	0
95500	8.255082	0
95700	8.289533	0
95900	8.324056	0
96100	8.358650	0
96300	8.393317	1
96500	8.428055	0
96700	8.462864	0
96900	8.497746	0
97100	8.532699	0
97300	8.567724	0
97500	8.602820	0
97700	8.637989	0
97900	8.673229	0
98100	8.708541	0
98300	8.743924	0
98500	8.779380	0
98700	8.814907	0
98900	8.850505	0
99100	8.886176	0
99300	8.921918	0
99500	8.957732	0
99700	8.993618	0
99900	9.029575	0
100100	9.065605	0
100300	9.101706	0
100500	9.137878	0
100700	9.174123	0
100900	9.210439	0
101100	9.246827	0
101300	9.283286	0
101500	9.319818	0
101700	9.356421	0
101900	9.393096	0
102100	9.429842	0
102300	9.466661	0
102500	9.503551	0
102700	9.540513	0
102900	9.577546	0
103100	9.614651	0
103300	9.651828	0
103500	9.689077	0
103700	9.726398	0
103900	9.763790	0
104100	9.801254	0
104300	9.838790	0
104500	9.876397	0
104700	9.914076	0
104900	9.951827	0
105100	9.989650	1
105300	10.027544	26
105500	10.065510	0
105700	10.103548	0
105900	10.141658	0
106100	10.179839	0
106300	10.218092	0
106500	10.256417	0
106700	10.294814	0
106900	10.333282	0
107100	10.371822	0
107300	10.410434	0
107500	10.449117	0
107700	10.487873	0
107900	10.526700	0
108100	10.565598	0
108300	10.604569	0
108500	10.643611	0
108700	10.682725	0
108900	10.721911	0
109100	10.761168	0
109300	10.800497	0
109500	10.839898	0
109700	10.879371	0
109900	10.918915	0
110100	10.958531	1
110300	10.998219	87
110500	11.037979	0
110700	11.077810	0
110900	11.117713	0
111100	11.157688	0
111300	11.197734	0
111500	11.237852	0
111700	11.278043	0
111900	11.318304	0
112100	11.358638	0
112300	11.399043	0
112500	11.439520	0
112700	11.480069	0
112900	11.520689	0
113100	11.561381	0
113300	11.602145	0
113500	11.642981	0
113700	11.683888	0
113900	11.724867	0
114100	11.765918	0
114300	11.807041	0
114500	11.848235	1
114700	11.889501	0
114900	11.930839	0
115100	11.972248	67
115300	12.013730	6828
115500	12.055283	0
115700	12.096907	0
115900	12.138604	0
116100	12.180372	0
116300	12.222212	0
116500	12.264124	1
116700	12.306107	0
116900	12.348163	0
117100	12.390289	0
117300	12.432488	0
117500	12.474758	0
117700	12.517101	0
117900	12.559514	0
118100	12.602000	0
118300	12.644557	0
118500	12.687187	0
118700	12.729887	0
118900	12.772660	0
119100	12.815504	0
119300	12.858420	0
119500	12.901408	0
119700	12.944468	0
119900	12.987599	3036
120100	13.030802	428
120300	13.074076	0
120500	13.117423	0
120700	13.160841	0
120900	13.204331	0
121100	13.247893	0
121300	13.291526	0
121500	13.335231	0
121700	13.379008	0
121900	13.422857	0
122100	13.466777	0
122300	13.510769	0
122500	13.554833	1
122700	13.598969	0
122900	13.643176	0
123100	13.687455	0
123300	13.731806	0
123500	13.776228	0
123700	13.820723	0
123900	13.865289	1
124100	13.909926	0
124300	13.954636	0
124500	13.999417	4483
124700	14.044270	33
124900	14.089195	1
125100	14.134191	0
125300	14.179259	0
125500	14.224399	0
125700	14.269611	0
125900	14.314894	0
126100	14.360249	0
126300	14.405676	0
126500	14.451175	0
126700	14.496745	0
126900	14.542387	0
127100	14.588101	0
127300	14.633886	0
127500	14.679744	0
127700	14.725673	0
127900	14.771674	0
128100	14.817746	0
128300	14.863890	0
128500	14.910106	0
128700	14.956394	1
128900	15.002753	15809
129100	15.049185	2316
129300	15.095687	4
129500	15.142262	1
129700	15.188909	3
129900	15.235627	2
130100	15.282417	1
130300	15.329278	1
130500	15.376211	0
130700	15.423217	0
130900	15.470293	0
131100	15.517442	0
131300	15.564662	1
131500	15.611954	0
131700	15.659318	0
131900	15.706754	0
132100	15.754261	0
132300	15.801840	0
132500	15.849490	0
132700	15.897213	0
132900	15.945007	1
133100	15.992873	281
133300	16.040811	275
133500	16.088820	1
133700	16.136901	0
133900	16.185054	0
134100	16.233279	1
134300	16.281575	0
134500	16.329943	0
134700	16.378383	0
134900	16.426895	0
135100	16.475478	0
135300	16.524133	0
135500	16.572860	0
135700	16.621658	0
135900	16.670529	0
136100	16.719471	0
136300	16.768484	0
136500	16.817570	0
136700	16.866727	0
136900	16.915956	0
137100	16.965257	0
137300	17.014629	317
137500	17.064073	3
137700	17.113589	1
137900	17.163177	0
138100	17.212836	0
138300	17.262567	1
138500	17.312370	0
138700	17.362245	0
138900	17.412191	0
139100	17.462209	0
139300	17.512299	0
139500	17.562460	0
139700	17.612694	0
139900	17.662999	0
140100	17.713375	0
140300	17.763824	0
140500	17.814344	0
140700	17.864936	0
140900	17.915600	1
141100	17.966335	0
141300	18.017142	2750
141500	18.068021	192
141700	18.118972	9
141900	18.169994	2
142100	18.221089	1
142300	18.272254	1
142500	18.323492	0
142700	18.374801	0
142900	18.426182	1
143100	18.477635	0
143300	18.529160	0
143500	18.580756	0
143700	18.632424	1
143900	18.684164	0
144100	18.735975	0
144300	18.787859	0
144500	18.839814	0
144700	18.891840	0
144900	18.943939	0
145100	18.996109	587
145300	19.048351	77
145500	19.100665	2
145700	19.153050	1
145900	19.205507	1
146100	19.258036	0
146300	19.310637	0
146500	19.363309	0
146700	19.416053	1
146900	19.468869	0
147100	19.521756	0
147300	19.574716	0
147500	19.627747	0
147700	19.680850	0
147900	19.734024	0
148100	19.787270	1
148300	19.840588	0
148500	19.893978	0
148700	19.947440	0
148900	20.000973	16
149100	20.054578	0
149300	20.108254	0
149500	20.162003	0
149700	20.215823	0
149900	20.269715	0
150100	20.323679	0
150300	20.377714	0
150500	20.431821	0
150700	20.486000	1
150900	20.540250	0
151100	20.594573	0
151300	20.648967	0
151500	20.703433	1
151700	20.757970	0
151900	20.812579	1
152100	20.867260	1
152300	20.922013	1
152500	20.976838	1
152700	21.031734	2
152900	21.086702	0
153100	21.141742	1
153300	21.196853	4
153500	21.252036	0
153700	21.307291	2
153900	21.362618	0
154100	21.418016	0
154300	21.473486	2
154500	21.529028	0
154700	21.584642	1
154900	21.640327	2
155100	21.696084	3
155300	21.751913	1
155500	21.807813	0
155700	21.863786	2
155900	21.919830	2
156100	21.975946	0
156300	22.032133	0
156500	22.088392	2
156700	22.144723	2
156900	22.201126	0
157100	22.257600	0
157300	22.314147	1
157500	22.370765	0
157700	22.427454	0
157900	22.484216	0
158100	22.541049	0
158300	22.597954	0
158500	22.654930	3
158700	22.711979	2
158900	22.769099	70
159100	22.826291	59
159300	22.883554	7
159500	22.940889	621
159700	22.998296	2133355
159900	23.055775	3089
160100	23.113326	1371
160300	23.170948	1099
160500	23.228642	860
160700	23.286408	586
160900	23.344245	443
161100	23.402154	327
161300	23.460135	279
161500	23.518188	198
161700	23.576312	166
161900	23.634509	115
162100	23.692777	101
162300	23.751116	104
162500	23.809528	84
162700	23.868011	71
162900	23.926565	54
163100	23.985192	1735
163300	24.043890	51
163500	24.102660	52
163700	24.161502	45
163900	24.220416	33
164100	24.279401	24
164300	24.338458	16
164500	24.397587	26
164700	24.456787	20
164900	24.516059	13
165100	24.575403	14
165300	24.634819	15
165500	24.694307	12
165700	24.753866	15
165900	24.813497	9
166100	24.873199	12
166300	24.932974	12
166500	24.992820	1705
166700	25.052738	21
166900	25.112727	10
167100	25.172789	8
167300	25.232922	7
167500	25.293126	15
167700	25.353403	5
167900	25.413751	5
168100	25.474171	4
168300	25.534663	7
168500	25.595227	9
168700	25.655862	8
168900	25.716569	4
169100	25.777348	4
169300	25.838198	7
169500	25.899120	9
169700	25.960114	342
169900	26.021180	6652
170100	26.082317	8
170300	26.143526	4
170500	26.204807	1
170700	26.266160	5
170900	26.327584	2
171100	26.389080	4
171300	26.450648	5
171500	26.512288	1
171700	26.573999	3
171900	26.635782	0
172100	26.697637	1
172300	26.759563	4
172500	26.821561	7
172700	26.883631	2
172900	26.945773	715
173100	27.007987	35333
173300	27.070272	110
173500	27.132629	15
173700	27.195058	9
173900	27.257558	6
174100	27.320130	3
174300	27.382774	3
174500	27.445490	2
174700	27.508277	3
174900	27.571136	7
175100	27.634067	1
175300	27.697069	0
175500	27.760144	3
175700	27.823290	2
175900	27.886508	5
176100	27.949797	4803
176300	28.013158	9341
176500	28.076591	45
176700	28.140096	5
176900	28.203673	5
177100	28.267321	5
177300	28.331041	3
177500	28.394833	6
177700	28.458696	1
177900	28.522631	1
178100	28.586638	1
178300	28.650717	2
178500	28.714867	2
178700	28.779089	10
178900	28.843383	5
179100	28.907749	6
179300	28.972186	7008
179500	29.036695	36820
179700	29.101276	39
179900	29.165928	18
180100	29.230653	6
180300	29.295449	9
180500	29.360316	5
180700	29.425256	2
180900	29.490267	2
181100	29.555350	3
181300	29.620505	0
181500	29.685731	1
181700	29.751030	2
181900	29.816399	5
182100	29.881841	3
182300	29.947354	160
182500	30.012940	6194
182700	30.078597	381
182900	30.144325	1
183100	30.210125	1
183300	30.275998	1
183500	30.341941	4
183700	30.407957	1
183900	30.474044	0
184100	30.540203	5
184300	30.606434	1
184500	30.672737	3
184700	30.739111	1
184900	30.805557	2
185100	30.872075	3
185300	30.938664	20
185500	31.005325	6049
185700	31.072058	107
185900	31.138863	3
186100	31.205739	21
186300	31.272687	7
186500	31.339707	0
186700	31.406799	1
186900	31.473962	4
187100	31.541197	16
187300	31.608504	5
187500	31.675883	2
187700	31.743333	3
187900	31.810855	0
188100	31.878449	3
188300	31.946114	22
188500	32.013852	213
188700	32.081661	144
188900	32.149541	1
189100	32.217494	0
189300	32.285518	5
189500	32.353614	3
189700	32.421782	2
189900	32.490021	2
190100	32.558332	2
190300	32.626715	1
190500	32.695170	0
190700	32.763696	0
190900	32.832294	0
191100	32.900964	0
191300	32.969706	11
191500	33.038519	55
191700	33.107404	2
191900	33.176361	1
192100	33.245390	2
192300	33.314490	4
192500	33.383662	5
192700	33.452906	0
192900	33.522221	1
193100	33.591608	0
193300	33.661067	1
193500	33.730598	0
193700	33.800201	2
193900	33.869875	0
194100	33.939621	1
194300	34.009438	11
194500	34.079328	1
194700	34.149289	4
194900	34.219322	1
195100	34.289426	0
195300	34.359603	1
195500	34.429851	2
195700	34.500171	1
195900	34.570562	1
196100	34.641025	0
196300	34.711560	1
196500	34.782167	2
196700	34.852846	1
196900	34.923596	5
197100	34.994418	359
197300	35.065312	0
197500	35.136277	1
197700	35.207314	1
197900	35.278423	1
198100	35.349604	0
198300	35.420856	1
198500	35.492180	0
198700	35.563576	0
198900	35.635044	0
199100	35.706583	0
199300	35.778194	0
199500	35.849877	1
199700	35.921632	5
199900	35.993458	823
200100	36.065356	2
200300	36.137326	0
200500	36.209368	0
200700	36.281481	1
200900	36.353666	0
201100	36.425923	0
201300	36.498251	0
201500	36.570651	0
201700	36.643123	1
201900	36.715667	1
202100	36.788282	0
202300	36.860969	4
202500	36.933728	184
202700	37.006559	3779
202900	37.079461	8
203100	37.152436	2
203300	37.225481	5
203500	37.298599	3
203700	37.371788	2
203900	37.445049	0
204100	37.518382	2
204300	37.591787	0
204500	37.665263	0
204700	37.738811	4
204900	37.812431	1
205100	37.886122	3
205300	37.959885	236
205500	38.033720	4827
205700	38.107627	8
205900	38.181606	2
206100	38.255656	5
206300	38.329778	0
206500	38.403971	2
206700	38.478237	3
206900	38.552574	4
207100	38.626983	6
207300	38.701463	15
207500	38.776016	5
207700	38.850640	25
207900	38.925336	72344
