# Binning: 200 channels
# Deadtime Correction: on
Channel	m/z	Intensity
100	0.000272	0
300	0.000506	0
500	0.000811	0
700	0.001188	0
900	0.001637	0
1100	0.002157	0
1300	0.002749	0
1500	0.003413	0
1700	0.004149	0
1900	0.004957	0
2100	0.005836	0
2300	0.006787	0
2500	0.007809	0
2700	0.008904	0
2900	0.010070	0
3100	0.011308	0
3300	0.012618	0
3500	0.013999	0
3700	0.015452	0
3900	0.016977	0
4100	0.018574	0
4300	0.020242	0
4500	0.021982	0
4700	0.023794	0
4900	0.025678	0
5100	0.027633	0
5300	0.029660	0
5500	0.031759	0
5700	0.033930	0
5900	0.036172	0
6100	0.038486	0
6300	0.040872	0
6500	0.043330	0
6700	0.045859	0
6900	0.048460	0
7100	0.051133	0
7300	0.053878	0
7500	0.056694	0
7700	0.059582	0
7900	0.062542	0
8100	0.065573	0
8300	0.068677	0
8500	0.071852	0
8700	0.075099	0
8900	0.078417	0
9100	0.081807	0
9300	0.085269	0
9500	0.088803	0
9700	0.092409	0
9900	0.096086	0
10100	0.099835	0
10300	0.103656	0
10500	0.107548	0
10700	0.111513	0
10900	0.115548	0
11100	0.119656	0
11300	0.123836	0
11500	0.128087	0
11700	0.132410	0
11900	0.136805	0
12100	0.141271	0
12300	0.145809	0
12500	0.150419	0
12700	0.155101	0
12900	0.159854	0
13100	0.164679	0
13300	0.169576	0
13500	0.174545	0
13700	0.179585	0
13900	0.184698	0
14100	0.189882	0
14300	0.195137	0
14500	0.200465	0
14700	0.205864	0
14900	0.211335	0
15100	0.216877	0
15300	0.222492	0
15500	0.228178	0
15700	0.233936	0
15900	0.239765	0
16100	0.245667	0
16300	0.251640	0
16500	0.257684	0
16700	0.263801	0
16900	0.269989	0
17100	0.276249	0
17300	0.282581	0
17500	0.288985	0
17700	0.295460	0
17900	0.302007	0
18100	0.308626	0
18300	0.315317	0
18500	0.322079	0
18700	0.328913	0
18900	0.335819	0
19100	0.342796	0
19300	0.349845	0
19500	0.356966	0
19700	0.364159	0
19900	0.371424	0
20100	0.378760	0
20300	0.386168	0
20500	0.393648	0
20700	0.401199	0
20900	0.408822	0
21100	0.416517	0
21300	0.424284	0
21500	0.432122	0
21700	0.440033	0
21900	0.448015	0
22100	0.456068	0
22300	0.464194	0
22500	0.472391	0
22700	0.480660	0
22900	0.489001	0
23100	0.497413	0
23300	0.505897	0
23500	0.514453	0
23700	0.523081	0
23900	0.531780	0
24100	0.540551	0
24300	0.549394	0
24500	0.558309	0
24700	0.567295	0
24900	0.576353	0
25100	0.585483	0
25300	0.594685	0
25500	0.603958	0
25700	0.613303	0
25900	0.622720	0
26100	0.632209	0
26300	0.641769	0
26500	0.651401	0
26700	0.661105	0
26900	0.670880	0
27100	0.680728	0
27300	0.690647	0
27500	0.700638	0
27700	0.710700	0
27900	0.720834	0
28100	0.731041	0
28300	0.741318	0
28500	0.751668	0
28700	0.762089	0
28900	0.772582	0
29100	0.783147	0
29300	0.793783	0
29500	0.804492	0
29700	0.815272	0
29900	0.826123	0
30100	0.837047	0
30300	0.848042	0
30500	0.859109	0
30700	0.870248	0
30900	0.881458	0
31100	0.892740	0
31300	0.904094	0
31500	0.915520	0
31700	0.927018	0
31900	0.938587	0
32100	0.950228	0
32300	0.961940	0
32500	0.973725	0
32700	0.985581	0
32900	0.997509	0
33100	1.009509	6452
33300	1.021580	1
33500	1.033723	0
33700	1.045938	0
33900	1.058225	0
34100	1.070583	0
34300	1.083013	0
34500	1.095515	0
34700	1.108089	1
34900	1.120734	0
35100	1.133451	0
35300	1.146240	0
35500	1.159101	0
35700	1.172033	0
35900	1.185037	0
36100	1.198113	0
36300	1.211260	0
36500	1.224480	0
36700	1.237771	0
36900	1.251134	0
37100	1.264568	0
37300	1.278074	1
37500	1.291653	0
37700	1.305302	0
37900	1.319024	0
38100	1.332817	0
38300	1.346682	0
38500	1.360619	0
38700	1.374627	0
38900	1.388708	0
39100	1.402860	0
39300	1.417083	0
39500	1.431379	0
39700	1.445746	0
39900	1.460185	0
40100	1.474696	0
40300	1.489278	0
40500	1.503933	0
40700	1.518659	0
40900	1.533456	0
41100	1.548326	0
41300	1.563267	0
41500	1.578280	0
41700	1.593365	0
41900	1.608521	0
42100	1.623749	0
42300	1.639049	0
42500	1.654421	0
42700	1.669864	0
42900	1.685379	0
43100	1.700966	0
43300	1.716625	0
43500	1.732355	0
43700	1.748157	0
43900	1.764031	0
44100	1.779977	0
44300	1.795994	0
44500	1.812083	0
44700	1.828244	0
44900	1.844477	0
45100	1.860781	0
45300	1.877157	0
45500	1.893605	0
45700	1.910125	0
45900	1.926716	0
46100	1.943379	0
46300	1.960114	0
46500	1.976920	0
46700	1.993799	0
46900	2.010749	232
47100	2.027771	0
47300	2.044864	0
47500	2.062029	0
47700	2.079267	0
47900	2.096575	0
48100	2.113956	0
48300	2.131408	0
48500	2.148932	0
48700	2.166528	0
48900	2.184195	0
49100	2.201935	0
49300	2.219746	1
49500	2.237628	0
49700	2.255583	0
49900	2.273609	0
50100	2.291707	0
50300	2.309877	0
50500	2.328118	0
50700	2.346431	0
50900	2.364816	0
51100	2.383273	0
51300	2.401801	0
51500	2.420402	0
51700	2.439074	0
51900	2.457817	0
52100	2.476633	0
52300	2.495520	0
52500	2.514479	0
52700	2.533509	0
52900	2.552612	0
53100	2.571786	0
53300	2.591032	0
53500	2.610349	0
53700	2.629739	0
53900	2.649200	0
54100	2.668733	0
54300	2.688337	0
54500	2.708014	0
54700	2.727762	0
54900	2.747582	0
55100	2.767473	0
55300	2.787437	0
55500	2.807472	0
55700	2.827579	0
55900	2.847757	0
56100	2.868007	0
56300	2.888330	0
56500	2.908723	0
56700	2.929189	0
56900	2.949726	0
57100	2.970335	0
57300	2.991016	0
57500	3.011769	5
57700	3.032593	52
57900	3.053489	0
58100	3.074457	0
58300	3.095496	1
58500	3.116607	0
58700	3.137790	0
58900	3.159045	0
59100	3.180372	0
59300	3.201770	0
59500	3.223240	0
59700	3.244782	0
59900	3.266395	0
60100	3.288080	0
60300	3.309837	0
60500	3.331666	0
60700	3.353566	0
60900	3.375538	0
61100	3.397582	0
61300	3.419698	0
61500	3.441886	0
61700	3.464145	0
61900	3.486476	0
62100	3.508878	0
62300	3.531353	0
62500	3.553899	1
62700	3.576517	0
62900	3.599206	0
63100	3.621968	0
63300	3.644801	0
63500	3.667706	0
63700	3.690682	0
63900	3.713731	0
64100	3.736851	0
64300	3.760043	0
64500	3.783306	0
64700	3.806642	0
64900	3.830049	0
65100	3.853528	0
65300	3.877078	0
65500	3.900700	0
65700	3.924395	0
65900	3.948160	0
66100	3.971998	0
66300	3.995907	0
66500	4.019888	0
66700	4.043941	0
66900	4.068066	0
67100	4.092262	0
67300	4.116530	0
67500	4.140870	0
67700	4.165281	0
67900	4.189764	0
68100	4.214319	0
68300	4.238946	0
68500	4.263645	0
68700	4.288415	0
68900	4.313257	0
69100	4.338171	0
69300	4.363156	0
69500	4.388213	0
69700	4.413342	0
69900	4.438543	0
70100	4.463815	0
70300	4.489160	0
70500	4.514576	0
70700	4.540063	0
70900	4.565623	0
71100	4.591254	0
71300	4.616957	0
71500	4.642731	0
71700	4.668578	0
71900	4.694496	0
72100	4.720486	0
72300	4.746548	0
72500	4.772681	0
72700	4.798886	0
72900	4.825163	0
73100	4.851512	0
73300	4.877932	0
73500	4.904424	0
73700	4.930988	0
73900	4.957624	0
74100	4.984331	0
74300	5.011110	0
74500	5.037961	0
74700	5.064883	0
74900	5.091878	0
75100	5.118944	0
75300	5.146082	0
75500	5.173291	0
75700	5.200573	0
75900	5.227926	0
76100	5.255350	0
76300	5.282847	0
76500	5.310415	0
76700	5.338055	0
76900	5.365767	0
77100	5.393551	0
77300	5.421406	0
77500	5.449333	0
77700	5.477332	0
77900	5.505402	0
78100	5.533544	0
78300	5.561758	0
78500	5.590044	0
78700	5.618402	0
78900	5.646831	0
79100	5.675332	0
79300	5.703904	0
79500	5.732549	0
79700	5.761265	0
79900	5.790053	0
80100	5.818913	0
80300	5.847844	0
80500	5.876847	0
80700	5.905922	0
80900	5.935069	0
81100	5.964287	0
81300	5.993578	0
81500	6.022939	121
81700	6.052373	0
81900	6.081879	0
82100	6.111456	0
82300	6.141105	0
82500	6.170825	0
82700	6.200618	0
82900	6.230482	0
83100	6.260418	0
83300	6.290425	0
83500	6.320505	0
83700	6.350656	1
83900	6.380878	0
84100	6.411173	0
84300	6.441539	0
84500	6.471977	0
84700	6.502487	0
84900	6.533069	0
85100	6.563722	0
85300	6.594447	0
85500	6.625244	0
85700	6.656113	0
85900	6.687053	0
86100	6.718065	0
86300	6.749149	0
86500	6.780304	0
86700	6.811532	0
86900	6.842831	0
87100	6.874201	0
87300	6.905644	0
87500	6.937158	0
87700	6.968744	0
87900	7.000402	1073
88100	7.032131	352
88300	7.063933	2
88500	7.095806	2
88700	7.127750	0
88900	7.159767	0
89100	7.191855	0
89300	7.224015	1
89500	7.256247	0
89700	7.288550	1
89900	7.320925	0
90100	7.353372	2
90300	7.385891	0
90500	7.418481	0
90700	7.451143	0
90900	7.483877	0
91100	7.516683	0
91300	7.549560	0
91500	7.582510	0
91700	7.615530	0
91900	7.648623	0
92100	7.681788	0
92300	7.715024	0
92500	7.748332	0
92700	7.781711	0
92900	7.815162	0
93100	7.848686	0
93300	7.882280	0
93500	7.915947	0
93700	7.949685	0
93900	7.983495	0
94100	8.017377	0
94300	8.051331	0
94500	8.085356	0
94700	8.119453	0
94900	8.153622	0
95100	8.187863	0
95300	8.222175	0
95500	8.256559	0
95700	8.291015	0
95900	8.325542	0
96100	8.360142	0
96300	8.394813	0
96500	8.429555	0
96700	8.464370	0
96900	8.499256	0
97100	8.534214	0
97300	8.569244	0
97500	8.604345	0
97700	8.639519	0
97900	8.674764	0
98100	8.710080	0
98300	8.745469	0
98500	8.780929	0
98700	8.816461	0
98900	8.852065	0
99100	8.887740	0
99300	8.923487	0
99500	8.959306	0
99700	8.995197	0
99900	9.031159	0
100100	9.067194	0
100300	9.103300	0
100500	9.139477	0
100700	9.175727	0
100900	9.212048	0
101100	9.248441	0
101300	9.284905	0
101500	9.321442	0
101700	9.358050	0
101900	9.394730	0
102100	9.431481	0
102300	9.468305	0
102500	9.505200	0
102700	9.542167	0
102900	9.579205	0
103100	9.616316	0
103300	9.653498	0
103500	9.690752	0
103700	9.728077	0
103900	9.765475	0
104100	9.802944	0
104300	9.840484	0
104500	9.878097	0
104700	9.915781	0
104900	9.953537	0
105100	9.991365	4
105300	10.029265	26
105500	10.067236	0
105700	10.105279	0
105900	10.143394	0
106100	10.181580	0
106300	10.219839	0
106500	10.258169	0
106700	10.296570	0
106900	10.335044	0
107100	10.373589	0
107300	10.412206	0
107500	10.450895	0
107700	10.489655	0
107900	10.528488	0
108100	10.567392	0
108300	10.606367	0
108500	10.645415	0
108700	10.684534	0
108900	10.723725	0
109100	10.762988	0
109300	10.802322	0
109500	10.841728	0
109700	10.881206	0
109900	10.920756	0
110100	10.960377	0
110300	11.000070	104
110500	11.039835	1
110700	11.079672	0
110900	11.119580	0
111100	11.159560	0
111300	11.199612	0
111500	11.239736	0
111700	11.279931	0
111900	11.320198	0
112100	11.360537	0
112300	11.400948	0
112500	11.441430	0
112700	11.481984	0
112900	11.522610	0
113100	11.563308	0
113300	11.604077	0
113500	11.644918	0
113700	11.685831	0
113900	11.726816	0
114100	11.767872	0
114300	11.809000	0
114500	11.850200	0
114700	11.891471	0
114900	11.932815	1
115100	11.974230	111
115300	12.015717	6302
115500	12.057275	1
115700	12.098905	0
115900	12.140607	0
116100	12.182381	0
116300	12.224227	0
116500	12.266144	0
116700	12.308133	0
116900	12.350194	0
117100	12.392326	0
117300	12.434530	0
117500	12.476806	0
117700	12.519154	0
117900	12.561574	1
118100	12.604065	0
118300	12.646628	0
118500	12.689262	0
118700	12.731969	0
118900	12.774747	0
119100	12.817597	0
119300	12.860519	0
119500	12.903512	0
119700	12.946577	0
119900	12.989714	2943
120100	13.032923	78
120300	13.076203	0
120500	13.119555	0
120700	13.162979	0
120900	13.206475	0
121100	13.250042	0
121300	13.293681	0
121500	13.337392	0
121700	13.381175	0
121900	13.425029	0
122100	13.468955	0
122300	13.512953	0
122500	13.557023	0
122700	13.601164	0
122900	13.645377	1
123100	13.689662	0
123300	13.734019	0
123500	13.778447	1
123700	13.822947	0
123900	13.867519	1
124100	13.912162	0
124300	13.956878	1
124500	14.001665	3792
124700	14.046524	10
124900	14.091454	0
125100	14.136456	0
125300	14.181530	0
125500	14.226676	0
125700	14.271894	0
125900	14.317183	0
126100	14.362544	0
126300	14.407977	0
126500	14.453481	0
126700	14.499057	0
126900	14.544705	1
127100	14.590425	0
127300	14.636217	0
127500	14.682080	0
127700	14.728015	0
127900	14.774022	0
128100	14.820100	0
128300	14.866250	0
128500	14.912472	0
128700	14.958766	0
128900	15.005131	14275
129100	15.051568	504
129300	15.098077	5
129500	15.144658	2
129700	15.191310	0
129900	15.238035	2
130100	15.284831	1
130300	15.331698	2
130500	15.378638	0
130700	15.425649	0
130900	15.472732	0
131100	15.519886	0
131300	15.567113	0
131500	15.614411	0
131700	15.661781	0
131900	15.709222	0
132100	15.756736	0
132300	15.804321	0
132500	15.851977	0
132700	15.899706	0
132900	15.947506	0
133100	15.995378	229
133300	16.043322	192
133500	16.091338	0
133700	16.139425	0
133900	16.187584	0
134100	16.235815	0
134300	16.284118	0
134500	16.332492	0
134700	16.380938	0
134900	16.429456	0
135100	16.478045	0
135300	16.526706	0
135500	16.575439	0
135700	16.624244	0
135900	16.673121	0
136100	16.722069	0
136300	16.771089	0
136500	16.820181	0
136700	16.869344	0
136900	16.918579	0
137100	16.967886	0
137300	17.017265	308
137500	17.066716	2
137700	17.116238	0
137900	17.165832	0
138100	17.215497	0
138300	17.265235	0
138500	17.315044	0
138700	17.364925	0
138900	17.414878	0
139100	17.464902	0
139300	17.514998	0
139500	17.565166	0
139700	17.615406	0
139900	17.665717	0
140100	17.716100	0
140300	17.766555	0
140500	17.817082	0
140700	17.867680	1
140900	17.918350	0
141100	17.969092	0
141300	18.019906	2218
141500	18.070791	92
141700	18.121748	1
141900	18.172777	2
142100	18.223878	1
142300	18.275050	1
142500	18.326294	1
142700	18.377610	1
142900	18.428998	0
143100	18.480457	0
143300	18.531988	0
143500	18.583591	0
143700	18.635265	0
143900	18.687012	0
144100	18.738830	0
144300	18.790719	0
144500	18.842681	0
144700	18.894714	0
144900	18.946819	0
145100	18.998996	712
145300	19.051244	32
145500	19.103565	1
145700	19.155957	1
145900	19.208420	1
146100	19.260956	0
146300	19.313563	0
146500	19.366242	1
146700	19.418993	0
146900	19.471815	0
147100	19.524710	0
147300	19.577676	0
147500	19.630713	0
147700	19.683823	0
147900	19.737004	0
148100	19.790257	0
148300	19.843581	0
148500	19.896978	0
148700	19.950446	2
148900	20.003986	12
149100	20.057598	0
149300	20.111281	0
149500	20.165036	1
149700	20.218863	0
149900	20.272762	1
150100	20.326732	0
150300	20.380774	0
150500	20.434888	0
150700	20.489074	0
150900	20.543331	1
151100	20.597660	0
151300	20.652061	1
151500	20.706534	2
151700	20.761078	2
151900	20.815694	1
152100	20.870382	1
152300	20.925142	1
152500	20.979973	0
152700	21.034876	1
152900	21.089851	0
153100	21.144897	1
153300	21.200016	1
153500	21.255206	3
153700	21.310467	0
153900	21.365801	0
154100	21.421206	1
154300	21.476683	0
154500	21.532232	0
154700	21.587853	0
154900	21.643545	2
155100	21.699309	1
155300	21.755145	0
155500	21.811052	1
155700	21.867031	1
155900	21.923082	1
156100	21.979205	2
156300	22.035400	0
156500	22.091666	0
156700	22.148004	0
156900	22.204413	1
157100	22.260895	0
157300	22.317448	0
157500	22.374073	1
157700	22.430770	1
157900	22.487538	0
158100	22.544378	0
158300	22.601290	0
158500	22.658274	5
158700	22.715329	2
158900	22.772456	72
159100	22.829655	56
159300	22.886926	13
159500	22.944268	715
159700	23.001683	1640068
159900	23.059168	2880
160100	23.116726	1468
160300	23.174355	1144
160500	23.232057	781
160700	23.289829	557
160900	23.347674	414
161100	23.405590	300
161300	23.463578	263
161500	23.521638	193
161700	23.579770	174
161900	23.637973	109
162100	23.696248	114
162300	23.754595	88
162500	23.813014	66
162700	23.871504	58
162900	23.930066	60
163100	23.988700	1516
163300	24.047405	52
163500	24.106183	38
163700	24.165032	31
163900	24.223953	36
164100	24.282945	27
164300	24.342009	21
164500	24.401145	19
164700	24.460353	22
164900	24.519633	17
165100	24.578984	14
165300	24.638407	12
165500	24.697902	13
165700	24.757468	14
165900	24.817106	18
166100	24.876816	13
166300	24.936598	5
166500	24.996451	1553
166700	25.056377	15
166900	25.116374	6
167100	25.176442	11
167300	25.236583	7
167500	25.296795	8
167700	25.357079	7
167900	25.417434	8
168100	25.477862	11
168300	25.538361	6
168500	25.598932	5
168700	25.659575	8
168900	25.720289	1
169100	25.781075	6
169300	25.841933	3
169500	25.902863	10
169700	25.963864	318
169900	26.024937	5871
170100	26.086082	9
170300	26.147299	5
170500	26.208587	4
170700	26.269947	4
170900	26.331379	2
171100	26.392883	1
171300	26.454458	4
171500	26.516105	3
171700	26.577824	3
171900	26.639614	1
172100	26.701477	1
172300	26.763411	0
172500	26.825417	6
172700	26.887494	4
172900	26.949643	1289
173100	27.011864	32103
173300	27.074157	59
173500	27.136522	16
173700	27.198958	6
173900	27.261466	1
174100	27.324046	0
174300	27.386697	3
174500	27.449421	5
174700	27.512216	4
174900	27.575082	5
175100	27.638021	5
175300	27.701031	2
175500	27.764113	2
175700	27.827267	4
175900	27.890492	6
176100	27.953789	4537
176300	28.017158	7630
176500	28.080599	16
176700	28.144112	5
176900	28.207696	4
177100	28.271352	3
177300	28.335079	1
177500	28.398879	0
177700	28.462750	2
177900	28.526693	4
178100	28.590708	2
178300	28.654794	3
178500	28.718952	1
178700	28.783182	2
178900	28.847484	2
179100	28.911857	16
179300	28.976302	7832
179500	29.040819	34634
179700	29.105408	41
179900	29.170068	10
180100	29.234800	12
180300	29.299604	6
180500	29.364480	7
180700	29.429427	6
180900	29.494446	7
181100	29.559537	3
181300	29.624699	3
181500	29.689934	2
181700	29.755240	7
181900	29.820618	2
182100	29.886067	3
182300	29.951589	163
182500	30.017182	5167
182700	30.082846	89
182900	30.148583	3
183100	30.214391	4
183300	30.280271	3
183500	30.346223	4
183700	30.412246	2
183900	30.478342	3
184100	30.544509	3
184300	30.610748	2
184500	30.677058	0
184700	30.743440	3
184900	30.809894	4
185100	30.876420	4
185300	30.943017	48
185500	31.009687	5206
185700	31.076428	55
185900	31.143240	2
186100	31.210125	17
186300	31.277081	6
186500	31.344109	4
186700	31.411209	1
186900	31.478380	8
187100	31.545623	10
187300	31.612938	2
187500	31.680325	5
187700	31.747783	2
187900	31.815313	3
188100	31.882915	0
188300	31.950589	17
188500	32.018334	199
188700	32.086151	47
188900	32.154040	3
189100	32.222001	1
189300	32.290033	1
189500	32.358137	2
189700	32.426313	2
189900	32.494561	2
190100	32.562880	1
190300	32.631271	1
190500	32.699734	1
190700	32.768269	1
190900	32.836875	0
191100	32.905553	0
191300	32.974303	11
191500	33.043125	56
191700	33.112018	1
191900	33.180983	1
192100	33.250020	1
192300	33.319128	5
192500	33.388309	2
192700	33.457561	0
192900	33.526884	2
193100	33.596280	1
193300	33.665747	2
193500	33.735286	2
193700	33.804897	0
193900	33.874579	0
194100	33.944334	1
194300	34.014160	11
194500	34.084057	0
194700	34.154027	0
194900	34.224068	1
195100	34.294181	0
195300	34.364366	2
195500	34.434622	0
195700	34.504951	1
195900	34.575350	1
196100	34.645822	0
196300	34.716366	1
196500	34.786981	1
196700	34.857668	1
196900	34.928426	2
197100	34.999257	300
197300	35.070159	2
197500	35.141133	0
197700	35.212179	0
197900	35.283296	0
198100	35.354485	0
198300	35.425746	1
198500	35.497079	1
198700	35.568483	0
198900	35.639959	1
199100	35.711507	0
199300	35.783127	1
199500	35.854818	0
199700	35.926581	14
199900	35.998416	710
200100	36.070323	1
200300	36.142301	1
200500	36.214351	2
200700	36.286473	2
200900	36.358666	0
201100	36.430932	0
201300	36.503269	3
201500	36.575678	1
201700	36.648158	1
201900	36.720710	1
202100	36.793334	0
202300	36.866030	8
202500	36.938798	195
202700	37.011637	3118
202900	37.084548	3
203100	37.157531	1
203300	37.230585	2
203500	37.303712	4
203700	37.376910	2
203900	37.450179	2
204100	37.523521	1
204300	37.596934	1
204500	37.670419	1
204700	37.743976	2
204900	37.817604	1
205100	37.891304	8
205300	37.965076	242
205500	38.038920	4096
205700	38.112836	1
205900	38.186823	2
206100	38.260882	0
206300	38.335012	3
206500	38.409215	4
206700	38.483489	3
206900	38.557835	0
207100	38.632252	3
207300	38.706742	9
207500	38.781303	7
207700	38.855936	29
207900	38.930641	124291
