# Binning: 200 channels
# Deadtime Correction: on
Channel	m/z	Intensity
100	0.000223	0
300	0.000436	0
500	0.000721	0
700	0.001076	0
900	0.001502	0
1100	0.001999	0
1300	0.002566	0
1500	0.003205	0
1700	0.003915	0
1900	0.004695	0
2100	0.005546	0
2300	0.006469	0
2500	0.007462	0
2700	0.008526	0
2900	0.009661	0
3100	0.010867	0
3300	0.012143	0
3500	0.013491	0
3700	0.014909	0
3900	0.016399	0
4100	0.017959	0
4300	0.019590	0
4500	0.021292	0
4700	0.023065	0
4900	0.024909	0
5100	0.026824	0
5300	0.028809	0
5500	0.030866	0
5700	0.032993	0
5900	0.035191	0
6100	0.037461	0
6300	0.039801	0
6500	0.042212	0
6700	0.044693	0
6900	0.047246	0
7100	0.049870	0
7300	0.052564	0
7500	0.055330	0
7700	0.058166	0
7900	0.061073	0
8100	0.064051	0
8300	0.067100	0
8500	0.070220	0
8700	0.073411	0
8900	0.076673	0
9100	0.080005	0
9300	0.083409	0
9500	0.086883	0
9700	0.090428	0
9900	0.094044	0
10100	0.097731	0
10300	0.101489	0
10500	0.105318	0
10700	0.109218	0
10900	0.113188	0
11100	0.117230	0
11300	0.121342	0
11500	0.125525	0
11700	0.129780	0
11900	0.134105	0
12100	0.138501	0
12300	0.142967	0
12500	0.147505	0
12700	0.152114	0
12900	0.156793	0
13100	0.161544	0
13300	0.166365	0
13500	0.171257	0
13700	0.176220	0
13900	0.181254	0
14100	0.186359	0
14300	0.191535	0
14500	0.196781	0
14700	0.202099	0
14900	0.207487	0
15100	0.212947	0
15300	0.218477	0
15500	0.224078	0
15700	0.229750	0
15900	0.235493	0
16100	0.241307	0
16300	0.247191	0
16500	0.253147	0
16700	0.259173	0
16900	0.265271	0
17100	0.271439	0
17300	0.277678	0
17500	0.283988	0
17700	0.290369	0
17900	0.296821	0
18100	0.303343	0
18300	0.309937	1
18500	0.316601	0
18700	0.323337	0
18900	0.330143	0
19100	0.337020	0
19300	0.343968	0
19500	0.350987	0
19700	0.358077	0
19900	0.365238	0
20100	0.372469	0
20300	0.379772	0
20500	0.387145	0
20700	0.394589	0
20900	0.402105	0
21100	0.409691	0
21300	0.417348	0
21500	0.425075	0
21700	0.432874	0
21900	0.440744	0
22100	0.448684	0
22300	0.456696	0
22500	0.464778	0
22700	0.472931	0
22900	0.481155	0
23100	0.489450	0
23300	0.497816	0
23500	0.506253	0
23700	0.514761	0
23900	0.523339	0
24100	0.531989	0
24300	0.540709	0
24500	0.549500	0
24700	0.558362	0
24900	0.567295	0
25100	0.576299	0
25300	0.585374	0
25500	0.594520	0
25700	0.603736	0
25900	0.613024	0
26100	0.622382	0
26300	0.631811	0
26500	0.641311	0
26700	0.650882	0
26900	0.660524	0
27100	0.670237	0
27300	0.680021	0
27500	0.689876	0
27700	0.699801	0
27900	0.709797	0
28100	0.719865	0
28300	0.730003	0
28500	0.740212	0
28700	0.750492	0
28900	0.760843	0
29100	0.771264	0
29300	0.781757	0
29500	0.792321	0
29700	0.802955	0
29900	0.813660	0
30100	0.824437	0
30300	0.835284	0
30500	0.846202	0
30700	0.857190	0
30900	0.868250	0
31100	0.879381	0
31300	0.890582	0
31500	0.901855	0
31700	0.913198	0
31900	0.924612	0
32100	0.936098	0
32300	0.947654	0
32500	0.959280	0
32700	0.970978	0
32900	0.982747	0
33100	0.994586	0
33300	1.006497	29588
33500	1.018478	7
33700	1.030531	1
33900	1.042654	1
34100	1.054848	1
34300	1.067113	0
34500	1.079448	1
34700	1.091855	0
34900	1.104333	0
35100	1.116881	0
35300	1.129501	0
35500	1.142191	0
35700	1.154952	0
35900	1.167784	0
36100	1.180687	0
36300	1.193661	0
36500	1.206706	0
36700	1.219821	0
36900	1.233008	0
37100	1.246265	0
37300	1.259593	0
37500	1.272993	0
37700	1.286463	0
37900	1.300004	0
38100	1.313616	0
38300	1.327298	0
38500	1.341052	0
38700	1.354877	0
38900	1.368772	0
39100	1.382738	0
39300	1.396776	0
39500	1.410884	0
39700	1.425063	0
39900	1.439313	0
40100	1.453633	0
40300	1.468025	0
40500	1.482488	0
40700	1.497021	0
40900	1.511625	0
41100	1.526301	0
41300	1.541047	0
41500	1.555864	0
41700	1.570752	0
41900	1.585711	0
42100	1.600740	0
42300	1.615841	0
42500	1.631012	0
42700	1.646255	0
42900	1.661568	0
43100	1.676952	0
43300	1.692407	0
43500	1.707933	0
43700	1.723530	0
43900	1.739198	0
44100	1.754936	0
44300	1.770746	0
44500	1.786626	0
44700	1.802578	0
44900	1.818600	0
45100	1.834693	0
45300	1.850857	0
45500	1.867092	0
45700	1.883397	0
45900	1.899774	0
46100	1.916222	0
46300	1.932740	0
46500	1.949329	0
46700	1.965990	0
46900	1.982721	0
47100	1.999523	0
47300	2.016396	966
47500	2.033339	0
47700	2.050354	0
47900	2.067440	1
48100	2.084596	0
48300	2.101823	0
48500	2.119122	0
48700	2.136491	0
48900	2.153931	0
49100	2.171442	0
49300	2.189024	0
49500	2.206676	0
49700	2.224400	0
49900	2.242194	0
50100	2.260060	0
50300	2.277996	0
50500	2.296003	0
50700	2.314081	0
50900	2.332230	0
51100	2.350450	0
51300	2.368741	0
51500	2.387102	0
51700	2.405535	0
51900	2.424038	0
52100	2.442613	0
52300	2.461258	0
52500	2.479974	0
52700	2.498761	0
52900	2.517619	1
53100	2.536547	0
53300	2.555547	0
53500	2.574618	0
53700	2.593759	0
53900	2.612971	0
54100	2.632254	0
54300	2.651609	0
54500	2.671034	0
54700	2.690529	0
54900	2.710096	0
55100	2.729734	0
55300	2.749442	0
55500	2.769222	0
55700	2.789072	0
55900	2.808994	0
56100	2.828986	0
56300	2.849049	0
56500	2.869183	0
56700	2.889387	0
56900	2.909663	0
57100	2.930010	0
57300	2.950427	0
57500	2.970916	0
57700	2.991475	0
57900	3.012105	6
58100	3.032806	214
58300	3.053578	0
58500	3.074421	0
58700	3.095335	0
58900	3.116319	0
59100	3.137375	0
59300	3.158501	0
59500	3.179698	0
59700	3.200967	0
59900	3.222306	0
60100	3.243716	0
60300	3.265196	0
60500	3.286748	0
60700	3.308371	0
60900	3.330064	0
61100	3.351829	0
61300	3.373664	0
61500	3.395570	0
61700	3.417547	0
61900	3.439595	0
62100	3.461714	0
62300	3.483904	0
62500	3.506165	0
62700	3.528496	0
62900	3.550899	0
63100	3.573372	0
63300	3.595916	0
63500	3.618531	0
63700	3.641217	0
63900	3.663974	0
64100	3.686802	0
64300	3.709701	0
64500	3.732670	0
64700	3.755711	0
64900	3.778822	0
65100	3.802005	0
65300	3.825258	0
65500	3.848582	0
65700	3.871977	0
65900	3.895443	0
66100	3.918979	0
66300	3.942587	0
66500	3.966265	0
66700	3.990015	0
66900	4.013835	0
67100	4.037726	0
67300	4.061688	0
67500	4.085721	0
67700	4.109825	0
67900	4.134000	0
68100	4.158246	0
68300	4.182562	0
68500	4.206949	0
68700	4.231408	0
68900	4.255937	0
69100	4.280537	0
69300	4.305208	0
69500	4.329950	0
69700	4.354763	0
69900	4.379646	0
70100	4.404601	0
70300	4.429626	0
70500	4.454723	0
70700	4.479890	0
70900	4.505128	0
71100	4.530437	0
71300	4.555817	0
71500	4.581268	0
71700	4.606790	0
71900	4.632382	0
72100	4.658046	0
72300	4.683780	0
72500	4.709585	0
72700	4.735461	0
72900	4.761408	0
73100	4.787426	0
73300	4.813515	0
73500	4.839675	0
73700	4.865905	0
73900	4.892207	0
74100	4.918579	0
74300	4.945023	0
74500	4.971537	0
74700	4.998122	0
74900	5.024778	0
75100	5.051505	0
75300	5.078302	0
75500	5.105171	0
75700	5.132111	0
75900	5.159121	0
76100	5.186202	0
76300	5.213355	0
76500	5.240578	0
76700	5.267872	0
76900	5.295237	0
77100	5.322672	0
77300	5.350179	0
77500	5.377756	0
77700	5.405405	0
77900	5.433124	0
78100	5.460915	0
78300	5.488776	0
78500	5.516708	0
78700	5.544711	0
78900	5.572784	0
79100	5.600929	0
79300	5.629145	0
79500	5.657431	0
79700	5.685788	0
79900	5.714217	0
80100	5.742716	0
80300	5.771286	0
80500	5.799927	0
80700	5.828639	0
80900	5.857421	0
81100	5.886275	0
81300	5.915199	0
81500	5.944195	0
81700	5.973261	0
81900	6.002398	373
82100	6.031606	15
82300	6.060885	1
82500	6.090235	0
82700	6.119656	0
82900	6.149148	0
83100	6.178710	0
83300	6.208343	0
83500	6.238048	0
83700	6.267823	0
83900	6.297669	0
84100	6.327586	0
84300	6.357574	0
84500	6.387633	0
84700	6.417762	0
84900	6.447963	0
85100	6.478234	0
85300	6.508577	0
85500	6.538990	0
85700	6.569474	0
85900	6.600029	0
86100	6.630655	0
86300	6.661352	0
86500	6.692119	0
86700	6.722958	0
86900	6.753867	0
87100	6.784848	0
87300	6.815899	0
87500	6.847021	0
87700	6.878214	0
87900	6.909478	0
88100	6.940813	0
88300	6.972219	0
88500	7.003695	4550
88700	7.035243	80
88900	7.066861	7
89100	7.098551	1
89300	7.130311	0
89500	7.162142	1
89700	7.194044	0
89900	7.226017	0
90100	7.258060	0
90300	7.290175	0
90500	7.322360	1
90700	7.354617	0
90900	7.386944	0
91100	7.419342	0
91300	7.451811	0
91500	7.484351	0
91700	7.516962	0
91900	7.549644	0
92100	7.582397	0
92300	7.615220	0
92500	7.648115	0
92700	7.681080	0
92900	7.714116	0
93100	7.747223	0
93300	7.780401	0
93500	7.813650	0
93700	7.846970	0
93900	7.880361	0
94100	7.913822	0
94300	7.947355	0
94500	7.980958	0
94700	8.014632	2
94900	8.048378	0
95100	8.082194	0
95300	8.116080	0
95500	8.150038	0
95700	8.184067	0
95900	8.218167	0
96100	8.252337	0
96300	8.286578	0
96500	8.320891	0
96700	8.355274	0
96900	8.389728	0
97100	8.424253	0
97300	8.458849	0
97500	8.493516	0
97700	8.528253	0
97900	8.563062	0
98100	8.597941	0
98300	8.632891	0
98500	8.667913	0
98700	8.703005	0
98900	8.738168	0
99100	8.773402	0
99300	8.808706	0
99500	8.844082	0
99700	8.879528	0
99900	8.915046	0
100100	8.950634	0
100300	8.986293	0
100500	9.022024	0
100700	9.057825	0
100900	9.093696	0
101100	9.129639	0
101300	9.165653	0
101500	9.201737	0
101700	9.237893	0
101900	9.274119	0
102100	9.310417	0
102300	9.346785	0
102500	9.383224	0
102700	9.419734	0
102900	9.456314	0
103100	9.492966	0
103300	9.529689	0
103500	9.566482	0
103700	9.603347	0
103900	9.640282	0
104100	9.677288	0
104300	9.714365	0
104500	9.751513	0
104700	9.788732	0
104900	9.826022	0
105100	9.863382	0
105300	9.900814	0
105500	9.938316	0
105700	9.975889	1
105900	10.013534	293
106100	10.051249	0
106300	10.089035	0
106500	10.126892	0
106700	10.164819	0
106900	10.202818	0
107100	10.240888	0
107300	10.279028	0
107500	10.317239	0
107700	10.355522	0
107900	10.393875	0
108100	10.432299	0
108300	10.470794	0
108500	10.509359	0
108700	10.547996	0
108900	10.586704	0
109100	10.625482	0
109300	10.664331	0
109500	10.703252	0
109700	10.742243	0
109900	10.781305	0
110100	10.820438	0
110300	10.859642	0
110500	10.898916	0
110700	10.938262	0
110900	10.977678	1
111100	11.017166	1026
111300	11.056724	0
111500	11.096353	0
111700	11.136053	0
111900	11.175824	0
112100	11.215666	0
112300	11.255579	0
112500	11.295562	0
112700	11.335617	0
112900	11.375742	0
113100	11.415938	0
113300	11.456206	0
113500	11.496544	0
113700	11.536953	0
113900	11.577433	0
114100	11.617983	0
114300	11.658605	0
114500	11.699298	0
114700	11.740061	0
114900	11.780895	0
115100	11.821800	0
115300	11.862777	0
115500	11.903824	0
115700	11.944941	2
115900	11.986130	6918
116100	12.027390	40
116300	12.068721	0
116500	12.110122	0
116700	12.151594	0
116900	12.193138	0
117100	12.234752	0
117300	12.276437	0
117500	12.318193	0
117700	12.360019	0
117900	12.401917	0
118100	12.443886	0
118300	12.485925	0
118500	12.528036	0
118700	12.570217	0
118900	12.612469	0
119100	12.654792	0
119300	12.697186	0
119500	12.739651	0
119700	12.782187	1
119900	12.824793	0
120100	12.867471	0
120300	12.910219	0
120500	12.953038	1
120700	12.995929	5590
120900	13.038890	20
121100	13.081922	0
121300	13.125024	0
121500	13.168198	0
121700	13.211443	0
121900	13.254758	1
122100	13.298145	1
122300	13.341602	0
122500	13.385130	0
122700	13.428729	0
122900	13.472399	0
123100	13.516140	0
123300	13.559952	0
123500	13.603835	0
123700	13.647788	0
123900	13.691813	0
124100	13.735908	0
124300	13.780074	0
124500	13.824312	0
124700	13.868620	0
124900	13.912998	0
125100	13.957448	2
125300	14.001969	18919
125500	14.046561	8
125700	14.091223	2
125900	14.135956	1
126100	14.180761	0
126300	14.225636	0
126500	14.270582	1
126700	14.315599	1
126900	14.360687	0
127100	14.405845	0
127300	14.451075	1
127500	14.496375	2
127700	14.541747	0
127900	14.587189	0
128100	14.632702	0
128300	14.678286	0
128500	14.723941	1
128700	14.769667	0
128900	14.815464	0
129100	14.861332	0
129300	14.907270	0
129500	14.953280	1
129700	14.999360	33167
129900	15.045511	52967
130100	15.091733	14
130300	15.138026	5
130500	15.184390	6
130700	15.230825	4
130900	15.277331	2
131100	15.323907	6
131300	15.370555	3
131500	15.417273	4
131700	15.464062	2
131900	15.510922	1
132100	15.557853	1
132300	15.604855	2
132500	15.651928	1
132700	15.699072	1
132900	15.746286	0
133100	15.793572	0
133300	15.840928	0
133500	15.888355	1
133700	15.935853	0
133900	15.983423	811
134100	16.031062	3144
134300	16.078773	2
134500	16.126555	1
134700	16.174408	1
134900	16.222331	0
135100	16.270326	1
135300	16.318391	0
135500	16.366527	0
135700	16.414734	0
135900	16.463012	0
136100	16.511361	0
136300	16.559781	0
136500	16.608271	0
136700	16.656833	1
136900	16.705465	0
137100	16.754169	0
137300	16.802943	0
137500	16.851788	0
137700	16.900704	0
137900	16.949691	0
138100	16.998748	617
138300	17.047877	1520
138500	17.097077	0
138700	17.146347	0
138900	17.195688	0
139100	17.245101	0
139300	17.294584	1
139500	17.344138	0
139700	17.393763	0
139900	17.443459	0
140100	17.493225	0
140300	17.543063	0
140500	17.592971	0
140700	17.642951	0
140900	17.693001	1
141100	17.743122	0
141300	17.793314	0
141500	17.843577	0
141700	17.893911	0
141900	17.944316	0
142100	17.994791	470
142300	18.045338	13751
142500	18.095955	24
142700	18.146643	5
142900	18.197403	2
143100	18.248233	5
143300	18.299134	2
143500	18.350105	1
143700	18.401148	2
143900	18.452262	4
144100	18.503446	1
144300	18.554702	0
144500	18.606028	0
144700	18.657425	2
144900	18.708893	0
145100	18.760432	1
145300	18.812042	1
145500	18.863723	0
145700	18.915475	0
145900	18.967297	6
146100	19.019191	7629
146300	19.071155	7
146500	19.123190	8
146700	19.175296	1
146900	19.227473	0
147100	19.279721	1
147300	19.332040	0
147500	19.384430	0
147700	19.436890	0
147900	19.489422	0
148100	19.542024	3
148300	19.594697	1
148500	19.647441	1
148700	19.700257	1
148900	19.753142	1
149100	19.806099	0
149300	19.859127	1
149500	19.912226	0
149700	19.965395	71
149900	20.018635	5
150100	20.071947	1
150300	20.125329	1
150500	20.178782	0
150700	20.232306	3
150900	20.285901	0
151100	20.339567	1
151300	20.393303	2
151500	20.447111	1
151700	20.500989	0
151900	20.554938	2
152100	20.608959	2
152300	20.663050	1
152500	20.717212	3
152700	20.771445	1
152900	20.825748	4
153100	20.880123	1
153300	20.934569	2
153500	20.989085	7
153700	21.043672	19
153900	21.098331	2
154100	21.153060	3
154300	21.207860	2
154500	21.262731	0
154700	21.317672	2
154900	21.372685	0
155100	21.427769	2
155300	21.482923	3
155500	21.538148	1
155700	21.593445	1
155900	21.648812	2
156100	21.704250	1
156300	21.759759	1
156500	21.815339	8
156700	21.870989	5
156900	21.926711	6
157100	21.982503	5
157300	22.038367	1
157500	22.094301	1
157700	22.150306	1
157900	22.206382	0
158100	22.262529	1
158300	22.318747	1
158500	22.375036	0
158700	22.431395	0
158900	22.487826	0
159100	22.544327	0
159300	22.600900	0
159500	22.657543	0
159700	22.714257	0
159900	22.771042	1
160100	22.827898	5
160300	22.884825	8
160500	22.941822	655
160700	22.998891	2347793
160900	23.056030	2387
161100	23.113241	1040
161300	23.170522	910
161500	23.227874	697
161700	23.285297	431
161900	23.342791	309
162100	23.400356	238
162300	23.457991	184
162500	23.515698	138
162700	23.573475	107
162900	23.631324	72
163100	23.689243	75
163300	23.747233	53
163500	23.805294	41
163700	23.863426	57
163900	23.921629	36
164100	23.979903	2490
164300	24.038247	38
164500	24.096663	24
164700	24.155149	21
164900	24.213706	22
165100	24.272334	16
165300	24.331033	13
165500	24.389803	14
165700	24.448644	10
165900	24.507556	6
166100	24.566539	7
166300	24.625592	4
166500	24.684717	10
166700	24.743912	2
166900	24.803178	4
167100	24.862515	7
167300	24.921923	13
167500	24.981402	1959
167700	25.040952	65
167900	25.100572	7
168100	25.160264	6
168300	25.220026	4
168500	25.279860	7
168700	25.339764	5
168900	25.399739	5
169100	25.459785	2
169300	25.519902	4
169500	25.580090	3
169700	25.640348	3
169900	25.700678	6
170100	25.761078	1
170300	25.821550	1
170500	25.882092	5
170700	25.942705	651
170900	26.003389	24290
171100	26.064144	12
171300	26.124970	9
171500	26.185867	6
171700	26.246834	8
171900	26.307873	4
172100	26.368982	6
172300	26.430162	7
172500	26.491413	6
172700	26.552736	5
172900	26.614129	5
173100	26.675592	10
173300	26.737127	5
173500	26.798733	6
173700	26.860409	1
173900	26.922157	127
174100	26.983975	13868
174300	27.045864	182407
174500	27.107824	36
174700	27.169855	22
174900	27.231957	20
175100	27.294130	13
175300	27.356373	9
175500	27.418688	9
175700	27.481073	23
175900	27.543530	20
176100	27.606057	7
176300	27.668655	13
176500	27.731324	9
176700	27.794064	10
176900	27.856875	24
177100	27.919756	98
177300	27.982709	24362
177500	28.045732	38224
177700	28.108827	25
177900	28.171992	13
178100	28.235228	14
178300	28.298535	9
178500	28.361913	5
178700	28.425362	13
178900	28.488882	7
179100	28.552472	6
179300	28.616134	9
179500	28.679866	12
179700	28.743669	12
179900	28.807543	15
180100	28.871489	16
180300	28.935504	1589
180500	28.999591	94476
180700	29.063749	172306
180900	29.127978	76
181100	29.192277	49
181300	29.256648	31
181500	29.321089	52
181700	29.385601	28
181900	29.450184	20
182100	29.514838	15
182300	29.579563	17
182500	29.644359	31
182700	29.709225	116
182900	29.774163	99
183100	29.839171	77
183300	29.904251	43
183500	29.969401	1794
183700	30.034622	19584
183900	30.099914	36
184100	30.165277	15
184300	30.230711	14
184500	30.296215	11
184700	30.361791	10
184900	30.427437	10
185100	30.493155	14
185300	30.558943	18
185500	30.624802	10
185700	30.690732	11
185900	30.756733	10
186100	30.822805	5
186300	30.888947	15
186500	30.955161	1226
186700	31.021446	262328
186900	31.087801	156
187100	31.154227	70
187300	31.220724	127
187500	31.287292	38
187700	31.353931	28
187900	31.420641	26
188100	31.487422	59
188300	31.554273	64
188500	31.621196	17
188700	31.688189	11
188900	31.755254	9
189100	31.822389	8
189300	31.889595	5
189500	31.956872	210
189700	32.024220	6159
189900	32.091638	27
190100	32.159128	11
190300	32.226689	4
190500	32.294320	3
190700	32.362022	8
190900	32.429796	9
191100	32.497640	9
191300	32.565555	3
191500	32.633541	1
191700	32.701597	3
191900	32.769725	3
192100	32.837924	4
192300	32.906193	5
192500	32.974533	118
192700	33.042945	3206
192900	33.111427	4
193100	33.179980	2
193300	33.248604	4
193500	33.317298	10
193700	33.386064	16
193900	33.454901	5
194100	33.523808	6
194300	33.592787	5
194500	33.661836	7
194700	33.730956	1
194900	33.800147	3
195100	33.869409	2
195300	33.938742	4
195500	34.008146	161
195700	34.077620	6
195900	34.147166	5
196100	34.216782	5
196300	34.286469	7
196500	34.356228	6
196700	34.426057	3
196900	34.495957	2
197100	34.565927	2
197300	34.635969	4
197500	34.706082	7
197700	34.776265	5
197900	34.846520	6
198100	34.916845	7
198300	34.987241	385
198500	35.057708	9
198700	35.128246	3
198900	35.198855	2
199100	35.269535	15
199300	35.340286	9
199500	35.411107	7
199700	35.482000	2
199900	35.552963	3
200100	35.623997	4
200300	35.695102	7
200500	35.766278	6
200700	35.837525	3
200900	35.908843	4
201100	35.980232	449
201300	36.051691	13
201500	36.123222	3
201700	36.194823	6
201900	36.266495	5
202100	36.338239	5
202300	36.410053	9
202500	36.481938	7
202700	36.553893	4
202900	36.625920	1
203100	36.698018	6
203300	36.770186	4
203500	36.842426	7
203700	36.914736	348
203900	36.987117	3760
204100	37.059569	55
204300	37.132092	8
204500	37.204686	4
204700	37.277351	9
204900	37.350086	6
205100	37.422893	3
205300	37.495770	5
205500	37.568719	13
205700	37.641738	3
205900	37.714828	9
206100	37.787989	7
206300	37.861221	10
206500	37.934524	151
206700	38.007897	9886
206900	38.081342	19
207100	38.154857	10
207300	38.228444	9
