# Binning: 200 channels
# Deadtime Correction: on
Channel	m/z	Intensity
100	0.000238	0
300	0.000459	0
500	0.000751	0
700	0.001116	0
900	0.001552	0
1100	0.002059	0
1300	0.002639	0
1500	0.003290	0
1700	0.004013	0
1900	0.004808	0
2100	0.005675	0
2300	0.006613	0
2500	0.007623	0
2700	0.008705	0
2900	0.009858	0
3100	0.011084	0
3300	0.012381	0
3500	0.013749	0
3700	0.015190	0
3900	0.016702	0
4100	0.018286	0
4300	0.019942	0
4500	0.021670	0
4700	0.023469	0
4900	0.025340	0
5100	0.027283	0
5300	0.029297	0
5500	0.031384	0
5700	0.033542	0
5900	0.035772	0
6100	0.038073	0
6300	0.040447	0
6500	0.042892	0
6700	0.045408	0
6900	0.047997	0
7100	0.050657	0
7300	0.053389	0
7500	0.056193	0
7700	0.059069	0
7900	0.062016	0
8100	0.065035	0
8300	0.068126	0
8500	0.071289	0
8700	0.074523	0
8900	0.077829	0
9100	0.081207	0
9300	0.084657	0
9500	0.088178	0
9700	0.091771	0
9900	0.095436	0
10100	0.099173	0
10300	0.102981	0
10500	0.106861	0
10700	0.110813	0
10900	0.114837	0
11100	0.118932	0
11300	0.123099	0
11500	0.127338	0
11700	0.131649	0
11900	0.136031	0
12100	0.140486	0
12300	0.145011	0
12500	0.149609	0
12700	0.154278	0
12900	0.159020	0
13100	0.163833	0
13300	0.168717	0
13500	0.173674	0
13700	0.178702	0
13900	0.183802	0
14100	0.188973	0
14300	0.194217	0
14500	0.199532	0
14700	0.204919	0
14900	0.210378	0
15100	0.215908	0
15300	0.221510	0
15500	0.227184	0
15700	0.232930	0
15900	0.238747	0
16100	0.244637	0
16300	0.250598	0
16500	0.256630	0
16700	0.262735	0
16900	0.268911	0
17100	0.275159	0
17300	0.281479	0
17500	0.287870	0
17700	0.294333	0
17900	0.300868	0
18100	0.307475	0
18300	0.314154	0
18500	0.320904	0
18700	0.327726	0
18900	0.334620	0
19100	0.341585	0
19300	0.348622	0
19500	0.355731	0
19700	0.362912	0
19900	0.370165	0
20100	0.377489	0
20300	0.384885	0
20500	0.392353	0
20700	0.399892	0
20900	0.407503	0
21100	0.415186	0
21300	0.422941	0
21500	0.430768	0
21700	0.438666	0
21900	0.446636	0
22100	0.454678	0
22300	0.462791	0
22500	0.470977	0
22700	0.479234	0
22900	0.487562	0
23100	0.495963	0
23300	0.504435	0
23500	0.512979	0
23700	0.521595	0
23900	0.530283	0
24100	0.539042	0
24300	0.547873	0
24500	0.556776	0
24700	0.565750	0
24900	0.574797	0
25100	0.583915	0
25300	0.593105	0
25500	0.602366	0
25700	0.611699	0
25900	0.621105	0
26100	0.630581	0
26300	0.640130	0
26500	0.649750	0
26700	0.659442	0
26900	0.669206	0
27100	0.679042	0
27300	0.688949	0
27500	0.698928	0
27700	0.708979	0
27900	0.719102	0
28100	0.729296	0
28300	0.739562	0
28500	0.749900	0
28700	0.760310	0
28900	0.770791	0
29100	0.781344	0
29300	0.791969	0
29500	0.802666	0
29700	0.813434	0
29900	0.824274	0
30100	0.835186	0
30300	0.846170	0
30500	0.857225	0
30700	0.868352	0
30900	0.879551	0
31100	0.890822	0
31300	0.902164	0
31500	0.913578	0
31700	0.925064	0
31900	0.936622	0
32100	0.948251	0
32300	0.959952	0
32500	0.971725	0
32700	0.983570	0
32900	0.995486	0
33100	1.007475	3678
33300	1.019534	4
33500	1.031666	1
33700	1.043870	0
33900	1.056145	0
34100	1.068492	0
34300	1.080910	0
34500	1.093401	0
34700	1.105963	0
34900	1.118597	0
35100	1.131303	0
35300	1.144080	0
35500	1.156929	0
35700	1.169850	0
35900	1.182843	0
36100	1.195907	0
36300	1.209044	0
36500	1.222252	0
36700	1.235531	0
36900	1.248883	0
37100	1.262306	0
37300	1.275801	0
37500	1.289368	0
37700	1.303006	0
37900	1.316716	0
38100	1.330498	0
38300	1.344352	0
38500	1.358278	0
38700	1.372275	0
38900	1.386344	0
39100	1.400485	0
39300	1.414697	0
39500	1.428981	0
39700	1.443337	0
39900	1.457765	0
40100	1.472265	0
40300	1.486836	0
40500	1.501479	0
40700	1.516194	0
40900	1.530980	0
41100	1.545838	0
41300	1.560768	0
41500	1.575770	0
41700	1.590844	0
41900	1.605989	0
42100	1.621206	0
42300	1.636495	0
42500	1.651855	0
42700	1.667288	0
42900	1.682792	0
43100	1.698367	0
43300	1.714015	0
43500	1.729734	0
43700	1.745525	0
43900	1.761388	0
44100	1.777323	0
44300	1.793329	0
44500	1.809407	0
44700	1.825557	0
44900	1.841779	0
45100	1.858072	0
45300	1.874437	0
45500	1.890874	0
45700	1.907382	0
45900	1.923963	0
46100	1.940615	0
46300	1.957339	0
46500	1.974134	0
46700	1.991001	0
46900	2.007941	142
47100	2.024951	1
47300	2.042034	0
47500	2.059188	0
47700	2.076414	0
47900	2.093712	0
48100	2.111082	0
48300	2.128523	0
48500	2.146036	0
48700	2.163621	0
48900	2.181278	0
49100	2.199006	0
49300	2.216806	0
49500	2.234678	0
49700	2.252622	0
49900	2.270637	0
50100	2.288724	0
50300	2.306883	0
50500	2.325114	0
50700	2.343416	0
50900	2.361790	0
51100	2.380236	0
51300	2.398754	0
51500	2.417343	0
51700	2.436005	0
51900	2.454737	0
52100	2.473542	0
52300	2.492419	0
52500	2.511367	0
52700	2.530387	0
52900	2.549478	0
53100	2.568642	0
53300	2.587877	0
53500	2.607184	0
53700	2.626562	0
53900	2.646013	0
54100	2.665535	0
54300	2.685129	0
54500	2.704795	0
54700	2.724532	0
54900	2.744341	0
55100	2.764222	0
55300	2.784175	0
55500	2.804199	0
55700	2.824296	0
55900	2.844464	0
56100	2.864703	0
56300	2.885015	0
56500	2.905398	0
56700	2.925853	0
56900	2.946380	0
57100	2.966978	0
57300	2.987648	0
57500	3.008390	0
57700	3.029204	16
57900	3.050090	0
58100	3.071047	0
58300	3.092076	0
58500	3.113177	2
58700	3.134349	0
58900	3.155593	0
59100	3.176909	0
59300	3.198297	0
59500	3.219757	0
59700	3.241288	0
59900	3.262891	0
60100	3.284566	0
60300	3.306312	0
60500	3.328130	0
60700	3.350020	0
60900	3.371982	0
61100	3.394016	0
61300	3.416121	0
61500	3.438298	0
61700	3.460547	0
61900	3.482867	0
62100	3.505260	0
62300	3.527724	0
62500	3.550259	0
62700	3.572867	0
62900	3.595546	0
63100	3.618297	0
63300	3.641120	0
63500	3.664015	0
63700	3.686981	0
63900	3.710019	0
64100	3.733129	0
64300	3.756310	0
64500	3.779564	0
64700	3.802889	0
64900	3.826286	0
65100	3.849754	0
65300	3.873294	0
65500	3.896907	0
65700	3.920590	0
65900	3.944346	0
66100	3.968173	0
66300	3.992072	0
66500	4.016043	0
66700	4.040086	0
66900	4.064200	0
67100	4.088386	0
67300	4.112644	0
67500	4.136974	0
67700	4.161375	0
67900	4.185848	0
68100	4.210393	0
68300	4.235010	0
68500	4.259698	0
68700	4.284458	0
68900	4.309290	0
69100	4.334194	0
69300	4.359169	0
69500	4.384216	0
69700	4.409335	0
69900	4.434526	0
70100	4.459788	0
70300	4.485122	0
70500	4.510528	0
70700	4.536006	0
70900	4.561555	0
71100	4.587176	0
71300	4.612869	0
71500	4.638634	0
71700	4.664470	0
71900	4.690378	0
72100	4.716358	0
72300	4.742410	0
72500	4.768533	0
72700	4.794728	0
72900	4.820995	0
73100	4.847334	0
73300	4.873745	0
73500	4.900227	0
73700	4.926781	0
73900	4.953406	0
74100	4.980104	0
74300	5.006873	0
74500	5.033714	0
74700	5.060627	0
74900	5.087611	0
75100	5.114667	0
75300	5.141795	0
75500	5.168995	0
75700	5.196266	0
75900	5.223610	0
76100	5.251024	0
76300	5.278511	0
76500	5.306070	0
76700	5.333700	0
76900	5.361402	0
77100	5.389176	0
77300	5.417021	0
77500	5.444938	0
77700	5.472927	0
77900	5.500988	0
78100	5.529120	0
78300	5.557325	0
78500	5.585601	0
78700	5.613948	0
78900	5.642368	0
79100	5.670859	0
79300	5.699422	0
79500	5.728057	0
79700	5.756763	0
79900	5.785542	0
80100	5.814392	0
80300	5.843313	0
80500	5.872307	0
80700	5.901372	0
80900	5.930509	0
81100	5.959718	0
81300	5.988999	0
81500	6.018351	33
81700	6.047775	0
81900	6.077271	0
82100	6.106838	1
82300	6.136478	0
82500	6.166189	0
82700	6.195971	0
82900	6.225826	0
83100	6.255752	0
83300	6.285750	0
83500	6.315820	0
83700	6.345962	0
83900	6.376175	0
84100	6.406460	0
84300	6.436817	0
84500	6.467245	0
84700	6.497746	0
84900	6.528318	0
85100	6.558962	0
85300	6.589677	0
85500	6.620464	0
85700	6.651324	0
85900	6.682254	0
86100	6.713257	0
86300	6.744331	0
86500	6.775477	0
86700	6.806695	0
86900	6.837985	0
87100	6.869346	0
87300	6.900779	0
87500	6.932284	0
87700	6.963861	0
87900	6.995509	0
88100	7.027229	482
88300	7.059021	0
88500	7.090885	0
88700	7.122820	0
88900	7.154827	0
89100	7.186906	0
89300	7.219057	0
89500	7.251279	0
89700	7.283573	0
89900	7.315939	0
90100	7.348377	0
90300	7.380886	0
90500	7.413467	0
90700	7.446120	0
90900	7.478845	0
91100	7.511641	0
91300	7.544509	0
91500	7.577449	0
91700	7.610461	0
91900	7.643544	0
92100	7.676700	0
92300	7.709926	0
92500	7.743225	0
92700	7.776596	0
92900	7.810038	0
93100	7.843552	0
93300	7.877137	0
93500	7.910795	0
93700	7.944524	0
93900	7.978325	0
94100	8.012198	0
94300	8.046142	0
94500	8.080158	0
94700	8.114246	0
94900	8.148406	0
95100	8.182637	0
95300	8.216940	0
95500	8.251315	0
95700	8.285762	0
95900	8.320281	0
96100	8.354871	0
96300	8.389533	0
96500	8.424267	0
96700	8.459072	0
96900	8.493949	0
97100	8.528898	0
97300	8.563919	0
97500	8.599011	0
97700	8.634176	1
97900	8.669412	0
98100	8.704719	0
98300	8.740099	0
98500	8.775550	0
98700	8.811073	0
98900	8.846668	0
99100	8.882334	0
99300	8.918073	0
99500	8.953883	0
99700	8.989764	0
99900	9.025718	0
100100	9.061743	0
100300	9.097840	0
100500	9.134009	0
100700	9.170249	0
100900	9.206562	0
101100	9.242946	0
101300	9.279401	0
101500	9.315929	0
101700	9.352528	0
101900	9.389199	0
102100	9.425942	0
102300	9.462757	0
102500	9.499643	0
102700	9.536601	0
102900	9.573631	0
103100	9.610732	0
103300	9.647906	0
103500	9.685151	0
103700	9.722468	0
103900	9.759856	0
104100	9.797316	0
104300	9.834848	0
104500	9.872452	0
104700	9.910128	0
104900	9.947875	0
105100	9.985694	0
105300	10.023585	11
105500	10.061548	0
105700	10.099582	0
105900	10.137688	0
106100	10.175866	0
106300	10.214116	0
106500	10.252437	0
106700	10.290830	0
106900	10.329295	0
107100	10.367831	0
107300	10.406440	0
107500	10.445120	0
107700	10.483872	0
107900	10.522695	0
108100	10.561591	0
108300	10.600558	0
108500	10.639597	0
108700	10.678707	0
108900	10.717890	0
109100	10.757144	0
109300	10.796470	0
109500	10.835867	0
109700	10.875337	0
109900	10.914878	0
110100	10.954491	0
110300	10.994175	45
110500	11.033932	0
110700	11.073760	0
110900	11.113660	0
111100	11.153631	0
111300	11.193675	0
111500	11.233790	0
111700	11.273977	0
111900	11.314236	0
112100	11.354566	0
112300	11.394968	0
112500	11.435442	0
112700	11.475988	0
112900	11.516605	0
113100	11.557294	0
113300	11.598055	0
113500	11.638888	0
113700	11.679792	0
113900	11.720769	0
114100	11.761817	0
114300	11.802936	0
114500	11.844128	0
114700	11.885391	0
114900	11.926726	0
115100	11.968133	4
115300	12.009611	3202
115500	12.051161	0
115700	12.092783	0
115900	12.134477	0
116100	12.176242	0
116300	12.218080	0
116500	12.259989	0
116700	12.301969	0
116900	12.344022	0
117100	12.386146	0
117300	12.428342	0
117500	12.470610	0
117700	12.512949	0
117900	12.555360	0
118100	12.597843	1
118300	12.640398	0
118500	12.683025	0
118700	12.725723	0
118900	12.768493	0
119100	12.811335	0
119300	12.854248	0
119500	12.897233	0
119700	12.940290	0
119900	12.983419	236
120100	13.026620	1270
120300	13.069892	0
120500	13.113236	0
120700	13.156652	0
120900	13.200139	0
121100	13.243699	1
121300	13.287330	0
121500	13.331032	0
121700	13.374807	0
121900	13.418653	0
122100	13.462571	0
122300	13.506561	0
122500	13.550623	0
122700	13.594756	0
122900	13.638961	0
123100	13.683238	0
123300	13.727586	0
123500	13.772007	0
123700	13.816499	0
123900	13.861062	0
124100	13.905698	0
124300	13.950405	0
124500	13.995184	1656
124700	14.040035	137
124900	14.084958	0
125100	14.129952	0
125300	14.175018	0
125500	14.220156	0
125700	14.265366	0
125900	14.310647	0
126100	14.356000	0
126300	14.401425	0
126500	14.446922	0
126700	14.492490	0
126900	14.538130	0
127100	14.583842	0
127300	14.629625	0
127500	14.675481	0
127700	14.721408	0
127900	14.767407	0
128100	14.813477	0
128300	14.859620	0
128500	14.905834	0
128700	14.952120	0
128900	14.998477	1524
129100	15.044907	4578
129300	15.091408	0
129500	15.137981	2
129700	15.184625	1
129900	15.231342	0
130100	15.278130	0
130300	15.324990	1
130500	15.371921	0
130700	15.418925	0
130900	15.466000	0
131100	15.513147	0
131300	15.560366	0
131500	15.607656	0
131700	15.655018	0
131900	15.702452	0
132100	15.749958	0
132300	15.797535	0
132500	15.845184	0
132700	15.892905	0
132900	15.940698	0
133100	15.988562	99
133300	16.036499	104
133500	16.084506	0
133700	16.132586	0
133900	16.180738	0
134100	16.228961	0
134300	16.277256	0
134500	16.325622	1
134700	16.374061	0
134900	16.422571	0
135100	16.471153	0
135300	16.519807	0
135500	16.568532	0
135700	16.617329	0
135900	16.666198	0
136100	16.715139	0
136300	16.764152	0
136500	16.813236	0
136700	16.862392	0
136900	16.911619	0
137100	16.960919	0
137300	17.010290	103
137500	17.059733	3
137700	17.109248	0
137900	17.158834	0
138100	17.208493	0
138300	17.258223	0
138500	17.308024	0
138700	17.357898	0
138900	17.407843	0
139100	17.457860	0
139300	17.507949	0
139500	17.558109	0
139700	17.608342	0
139900	17.658646	0
140100	17.709021	0
140300	17.759469	0
140500	17.809988	0
140700	17.860579	0
140900	17.911242	0
141100	17.961977	0
141300	18.012783	602
141500	18.063661	190
141700	18.114611	4
141900	18.165632	0
142100	18.216726	1
142300	18.267891	0
142500	18.319127	0
142700	18.370436	0
142900	18.421816	0
143100	18.473268	0
143300	18.524792	0
143500	18.576388	0
143700	18.628055	0
143900	18.679794	0
144100	18.731605	0
144300	18.783487	0
144500	18.835442	0
144700	18.887468	0
144900	18.939566	0
145100	18.991735	99
145300	19.043977	94
145500	19.096290	1
145700	19.148674	0
145900	19.201131	0
146100	19.253659	0
146300	19.306259	0
146500	19.358931	0
146700	19.411675	0
146900	19.464490	0
147100	19.517377	0
147300	19.570336	0
147500	19.623367	0
147700	19.676469	0
147900	19.729643	0
148100	19.782889	0
148300	19.836207	0
148500	19.889596	0
148700	19.943057	0
148900	19.996590	4
149100	20.050195	0
149300	20.103871	0
149500	20.157619	0
149700	20.211439	0
149900	20.265331	0
150100	20.319294	0
150300	20.373329	0
150500	20.427436	0
150700	20.481615	0
150900	20.535865	0
151100	20.590188	0
151300	20.644581	0
151500	20.699047	0
151700	20.753585	0
151900	20.808194	1
152100	20.862875	0
152300	20.917627	1
152500	20.972452	0
152700	21.027348	0
152900	21.082316	1
153100	21.137355	0
153300	21.192467	1
153500	21.247650	0
153700	21.302905	1
153900	21.358232	0
154100	21.413630	0
154300	21.469100	0
154500	21.524642	0
154700	21.580256	0
154900	21.635941	0
155100	21.691699	0
155300	21.747528	0
155500	21.803428	0
155700	21.859401	0
155900	21.915445	1
156100	21.971561	1
156300	22.027749	0
156500	22.084008	0
156700	22.140339	0
156900	22.196742	0
157100	22.253217	0
157300	22.309764	0
157500	22.366382	2
157700	22.423072	1
157900	22.479834	0
158100	22.536667	0
158300	22.593572	0
158500	22.650549	0
158700	22.707598	0
158900	22.764719	0
159100	22.821911	1
159300	22.879175	33
159500	22.936511	101
159700	22.993918	974333
159900	23.051397	4783
160100	23.108948	1039
160300	23.166571	582
160500	23.224266	394
160700	23.282032	287
160900	23.339870	210
161100	23.397780	161
161300	23.455761	108
161500	23.513815	105
161700	23.571940	82
161900	23.630136	66
162100	23.688405	57
162300	23.746745	37
162500	23.805157	40
162700	23.863641	27
162900	23.922197	25
163100	23.980824	823
163300	24.039523	22
163500	24.098294	14
163700	24.157136	20
163900	24.216051	11
164100	24.275037	11
164300	24.334095	18
164500	24.393224	5
164700	24.452426	8
164900	24.511699	10
165100	24.571043	3
165300	24.630460	6
165500	24.689948	6
165700	24.749508	5
165900	24.809140	3
166100	24.868844	1
166300	24.928619	1
166500	24.988466	712
166700	25.048385	6
166900	25.108376	2
167100	25.168438	1
167300	25.228572	4
167500	25.288778	0
167700	25.349056	1
167900	25.409405	1
168100	25.469826	2
168300	25.530319	3
168500	25.590884	1
168700	25.651520	1
168900	25.712228	2
169100	25.773008	1
169300	25.833860	2
169500	25.894783	3
169700	25.955778	111
169900	26.016845	2312
170100	26.077984	0
170300	26.139194	0
170500	26.200476	3
170700	26.261830	1
170900	26.323256	0
171100	26.384753	1
171300	26.446323	0
171500	26.507963	1
171700	26.569676	2
171900	26.631461	5
172100	26.693317	0
172300	26.755245	0
172500	26.817244	1
172700	26.879316	0
172900	26.941459	80
173100	27.003674	11727
173300	27.065960	96
173500	27.128319	7
173700	27.190749	2
173900	27.253251	2
174100	27.315825	2
174300	27.378470	2
174500	27.441187	5
174700	27.503976	0
174900	27.566837	3
175100	27.629770	1
175300	27.692774	3
175500	27.755850	2
175700	27.818997	1
175900	27.882217	0
176100	27.945508	1501
176300	28.008871	3065
176500	28.072306	36
176700	28.135812	1
176900	28.199391	1
177100	28.263041	3
177300	28.326762	0
177500	28.390556	1
177700	28.454421	0
177900	28.518358	0
178100	28.582367	2
178300	28.646447	0
178500	28.710599	1
178700	28.774823	0
178900	28.839119	0
179100	28.903487	2
179300	28.967926	1217
179500	29.032437	13110
179700	29.097020	47
179900	29.161674	4
180100	29.226401	4
180300	29.291199	5
180500	29.356068	3
180700	29.421010	2
180900	29.486023	1
181100	29.551108	0
181300	29.616265	2
181500	29.681494	3
181700	29.746794	0
181900	29.812166	0
182100	29.877610	2
182300	29.943125	63
182500	30.008713	1773
182700	30.074372	271
182900	30.140102	2
183100	30.205905	2
183300	30.271779	0
183500	30.337725	0
183700	30.403743	0
183900	30.469833	2
184100	30.535994	2
184300	30.602227	0
184500	30.668532	1
184700	30.734908	1
184900	30.801357	0
185100	30.867877	1
185300	30.934469	3
185500	31.001132	1969
185700	31.067868	62
185900	31.134675	0
186100	31.201554	3
186300	31.268504	8
186500	31.335527	1
186700	31.402621	0
186900	31.469787	0
187100	31.537024	0
187300	31.604333	3
187500	31.671715	0
187700	31.739167	2
187900	31.806692	0
188100	31.874288	1
188300	31.941957	5
188500	32.009696	58
188700	32.077508	53
188900	32.145391	0
189100	32.213347	1
189300	32.281374	0
189500	32.349472	0
189700	32.417643	0
189900	32.485885	0
190100	32.554199	0
190300	32.622584	0
190500	32.691042	0
190700	32.759571	0
190900	32.828172	0
191100	32.896844	0
191300	32.965589	6
191500	33.034405	16
191700	33.103293	1
191900	33.172253	0
192100	33.241284	0
192300	33.310387	0
192500	33.379562	2
192700	33.448809	3
192900	33.518127	0
193100	33.587517	0
193300	33.656979	0
193500	33.726513	1
193700	33.796118	0
193900	33.865796	0
194100	33.935545	0
194300	34.005365	3
194500	34.075258	0
194700	34.145222	1
194900	34.215258	1
195100	34.285366	0
195300	34.355545	0
195500	34.425796	0
195700	34.496119	0
195900	34.566514	0
196100	34.636980	0
196300	34.707519	0
196500	34.778129	0
196700	34.848810	0
196900	34.919564	0
197100	34.990389	125
197300	35.061286	1
197500	35.132255	0
197700	35.203295	0
197900	35.274408	0
198100	35.345592	0
198300	35.416847	0
198500	35.488175	1
198700	35.559574	0
198900	35.631045	0
199100	35.702588	0
199300	35.774202	0
199500	35.845889	0
199700	35.917647	1
199900	35.989476	275
200100	36.061378	1
200300	36.133351	0
200500	36.205396	1
200700	36.277513	0
200900	36.349702	1
201100	36.421962	0
201300	36.494294	1
201500	36.566698	0
201700	36.639173	1
201900	36.711720	0
202100	36.784340	0
202300	36.857030	0
202500	36.929793	58
202700	37.002627	1209
202900	37.075533	3
203100	37.148511	0
203300	37.221561	2
203500	37.294682	0
203700	37.367875	0
203900	37.441140	2
204100	37.514476	1
204300	37.587885	1
204500	37.661365	0
204700	37.734917	1
204900	37.808540	1
205100	37.882236	0
205300	37.956003	72
205500	38.029841	1628
205700	38.103752	3
205900	38.177734	3
206100	38.251789	2
206300	38.325914	0
206500	38.400112	2
206700	38.474381	1
206900	38.548722	2
207100	38.623135	0
207300	38.697620	1
207500	38.772176	0
207700	38.846804	10
207900	38.921504	8372
208100	38.996276	71669
208300	39.071119	933
