# Binning: 200 channels
# Deadtime Correction: on
Channel	m/z	Intensity
100	0.000395	0
300	0.000673	0
500	0.001025	0
700	0.001450	0
900	0.001949	0
1100	0.002521	0
1300	0.003167	0
1500	0.003886	0
1700	0.004679	0
1900	0.005546	0
2100	0.006486	0
2300	0.007499	0
2500	0.008586	0
2700	0.009747	0
2900	0.010982	0
3100	0.012289	0
3300	0.013671	0
3500	0.015126	0
3700	0.016654	0
3900	0.018257	0
4100	0.019932	0
4300	0.021682	0
4500	0.023504	0
4700	0.025401	0
4900	0.027371	0
5100	0.029414	0
5300	0.031531	0
5500	0.033722	0
5700	0.035986	0
5900	0.038324	0
6100	0.040735	0
6300	0.043220	0
6500	0.045779	0
6700	0.048411	0
6900	0.051116	1
7100	0.053895	0
7300	0.056748	0
7500	0.059675	0
7700	0.062674	0
7900	0.065748	0
8100	0.068895	0
8300	0.072115	0
8500	0.075409	0
8700	0.078777	0
8900	0.082218	0
9100	0.085733	0
9300	0.089322	0
9500	0.092983	0
9700	0.096719	0
9900	0.100528	0
10100	0.104411	0
10300	0.108367	0
10500	0.112397	0
10700	0.116500	0
10900	0.120677	0
11100	0.124927	0
11300	0.129251	0
11500	0.133649	0
11700	0.138120	0
11900	0.142665	0
12100	0.147283	0
12300	0.151975	0
12500	0.156740	0
12700	0.161579	0
12900	0.166492	0
13100	0.171478	0
13300	0.176537	0
13500	0.181671	0
13700	0.186877	0
13900	0.192158	0
14100	0.197512	0
14300	0.202939	0
14500	0.208440	0
14700	0.214015	0
14900	0.219663	0
15100	0.225385	0
15300	0.231180	0
15500	0.237049	0
15700	0.242991	0
15900	0.249007	0
16100	0.255097	0
16300	0.261260	0
16500	0.267497	0
16700	0.273807	0
16900	0.280191	0
17100	0.286648	0
17300	0.293179	0
17500	0.299784	0
17700	0.306462	0
17900	0.313213	0
18100	0.320038	0
18300	0.326937	0
18500	0.333909	0
18700	0.340955	0
18900	0.348075	0
19100	0.355268	0
19300	0.362534	0
19500	0.369875	0
19700	0.377288	0
19900	0.384776	0
20100	0.392336	0
20300	0.399971	0
20500	0.407679	0
20700	0.415460	0
20900	0.423315	0
21100	0.431244	0
21300	0.439246	0
21500	0.447322	0
21700	0.455471	0
21900	0.463694	0
22100	0.471991	0
22300	0.480361	0
22500	0.488804	0
22700	0.497322	0
22900	0.505912	0
23100	0.514577	0
23300	0.523314	0
23500	0.532126	0
23700	0.541011	0
23900	0.549969	0
24100	0.559002	0
24300	0.568107	0
24500	0.577287	0
24700	0.586539	0
24900	0.595866	0
25100	0.605266	0
25300	0.614739	0
25500	0.624286	0
25700	0.633907	0
25900	0.643601	0
26100	0.653369	0
26300	0.663210	0
26500	0.673125	0
26700	0.683114	0
26900	0.693176	0
27100	0.703311	0
27300	0.713520	0
27500	0.723803	0
27700	0.734159	0
27900	0.744589	0
28100	0.755092	0
28300	0.765669	0
28500	0.776320	0
28700	0.787044	0
28900	0.797842	0
29100	0.808713	0
29300	0.819658	0
29500	0.830676	0
29700	0.841768	0
29900	0.852934	0
30100	0.864173	0
30300	0.875485	0
30500	0.886871	0
30700	0.898331	0
30900	0.909864	0
31100	0.921471	1
31300	0.933152	0
31500	0.944906	0
31700	0.956733	0
31900	0.968634	0
32100	0.980609	0
32300	0.992657	2
32500	1.004779	3584
32700	1.016975	18
32900	1.029243	2
33100	1.041586	0
33300	1.054002	0
33500	1.066492	0
33700	1.079055	0
33900	1.091692	0
34100	1.104402	0
34300	1.117186	0
34500	1.130043	0
34700	1.142974	0
34900	1.155979	0
35100	1.169057	0
35300	1.182209	0
35500	1.195434	0
35700	1.208733	0
35900	1.222105	0
36100	1.235551	0
36300	1.249071	0
36500	1.262664	0
36700	1.276331	0
36900	1.290071	0
37100	1.303885	0
37300	1.317772	0
37500	1.331733	0
37700	1.345767	0
37900	1.359875	0
38100	1.374057	0
38300	1.388312	0
38500	1.402641	0
38700	1.417043	0
38900	1.431519	0
39100	1.446069	0
39300	1.460692	0
39500	1.475388	0
39700	1.490158	0
39900	1.505002	0
40100	1.519919	0
40300	1.534910	0
40500	1.549974	0
40700	1.565112	0
40900	1.580324	0
41100	1.595609	0
41300	1.610968	0
41500	1.626400	0
41700	1.641906	0
41900	1.657485	0
42100	1.673138	0
42300	1.688864	0
42500	1.704664	0
42700	1.720538	0
42900	1.736485	0
43100	1.752506	0
43300	1.768600	0
43500	1.784768	0
43700	1.801009	0
43900	1.817324	0
44100	1.833713	0
44300	1.850175	0
44500	1.866711	0
44700	1.883320	0
44900	1.900003	0
45100	1.916759	0
45300	1.933589	0
45500	1.950492	0
45700	1.967469	0
45900	1.984520	0
46100	2.001644	1
46300	2.018842	290
46500	2.036113	0
46700	2.053458	0
46900	2.070877	0
47100	2.088369	0
47300	2.105934	0
47500	2.123573	0
47700	2.141286	0
47900	2.159072	0
48100	2.176932	0
48300	2.194865	0
48500	2.212872	0
48700	2.230953	0
48900	2.249107	0
49100	2.267335	0
49300	2.285636	0
49500	2.304011	0
49700	2.322459	0
49900	2.340981	0
50100	2.359576	0
50300	2.378245	0
50500	2.396988	0
50700	2.415804	0
50900	2.434694	0
51100	2.453657	0
51300	2.472694	0
51500	2.491804	0
51700	2.510988	0
51900	2.530246	0
52100	2.549577	0
52300	2.568982	0
52500	2.588460	0
52700	2.608012	0
52900	2.627637	0
53100	2.647336	0
53300	2.667109	0
53500	2.686955	0
53700	2.706874	0
53900	2.726867	0
54100	2.746934	0
54300	2.767074	0
54500	2.787288	0
54700	2.807576	0
54900	2.827937	0
55100	2.848371	0
55300	2.868879	0
55500	2.889461	0
55700	2.910116	0
55900	2.930845	0
56100	2.951648	0
56300	2.972524	0
56500	2.993473	0
56700	3.014496	113
56900	3.035593	2
57100	3.056763	0
57300	3.078007	0
57500	3.099324	0
57700	3.120715	0
57900	3.142180	0
58100	3.163718	0
58300	3.185329	0
58500	3.207014	0
58700	3.228773	0
58900	3.250605	0
59100	3.272511	0
59300	3.294491	0
59500	3.316544	0
59700	3.338670	0
59900	3.360870	0
60100	3.383144	0
60300	3.405491	0
60500	3.427912	0
60700	3.450406	0
60900	3.472974	0
61100	3.495616	0
61300	3.518331	0
61500	3.541119	0
61700	3.563982	0
61900	3.586917	0
62100	3.609927	0
62300	3.633010	0
62500	3.656166	0
62700	3.679396	0
62900	3.702700	0
63100	3.726077	0
63300	3.749527	0
63500	3.773052	0
63700	3.796650	0
63900	3.820321	0
64100	3.844066	0
64300	3.867884	0
64500	3.891776	0
64700	3.915742	0
64900	3.939781	0
65100	3.963894	0
65300	3.988080	0
65500	4.012340	0
65700	4.036674	0
65900	4.061081	0
66100	4.085561	0
66300	4.110116	0
66500	4.134743	0
66700	4.159445	0
66900	4.184220	0
67100	4.209068	0
67300	4.233990	0
67500	4.258985	0
67700	4.284055	0
67900	4.309197	0
68100	4.334414	0
68300	4.359703	0
68500	4.385067	0
68700	4.410504	0
68900	4.436014	0
69100	4.461598	0
69300	4.487256	0
69500	4.512987	0
69700	4.538792	0
69900	4.564670	0
70100	4.590622	0
70300	4.616647	0
70500	4.642746	0
70700	4.668919	0
70900	4.695165	0
71100	4.721485	0
71300	4.747878	0
71500	4.774345	0
71700	4.800885	0
71900	4.827499	0
72100	4.854187	0
72300	4.880948	0
72500	4.907783	0
72700	4.934691	0
72900	4.961673	0
73100	4.988728	0
73300	5.015857	0
73500	5.043059	0
73700	5.070335	0
73900	5.097685	0
74100	5.125108	0
74300	5.152605	0
74500	5.180175	0
74700	5.207819	0
74900	5.235536	0
75100	5.263327	1
75300	5.291192	0
75500	5.319130	0
75700	5.347142	0
75900	5.375227	0
76100	5.403386	0
76300	5.431618	0
76500	5.459924	0
76700	5.488304	0
76900	5.516757	0
77100	5.545283	0
77300	5.573884	0
77500	5.602557	0
77700	5.631305	0
77900	5.660126	0
78100	5.689020	0
78300	5.717988	0
78500	5.747030	0
78700	5.776145	0
78900	5.805333	1
79100	5.834596	0
79300	5.863932	1
79500	5.893341	0
79700	5.922824	0
79900	5.952380	0
80100	5.982011	1
80300	6.011714	5448
80500	6.041491	95
80700	6.071342	4
80900	6.101267	4
81100	6.131264	1
81300	6.161336	0
81500	6.191481	2
81700	6.221700	0
81900	6.251992	0
82100	6.282357	1
82300	6.312797	0
82500	6.343310	0
82700	6.373896	0
82900	6.404556	0
83100	6.435290	0
83300	6.466097	0
83500	6.496977	0
83700	6.527932	0
83900	6.558959	0
84100	6.590061	0
84300	6.621236	1
84500	6.652484	0
84700	6.683806	0
84900	6.715202	0
85100	6.746671	0
85300	6.778214	10
85500	6.809830	3
85700	6.841520	1
85900	6.873284	2
86100	6.905121	0
86300	6.937031	0
86500	6.969015	18
86700	7.001073	52519
86900	7.033204	13668
87100	7.065409	147
87300	7.097688	32
87500	7.130040	19
87700	7.162465	18
87900	7.194964	12
88100	7.227537	5
88300	7.260183	1
88500	7.292903	2
88700	7.325696	1
88900	7.358563	2
89100	7.391504	0
89300	7.424518	0
89500	7.457605	1
89700	7.490766	1
89900	7.524001	0
90100	7.557310	0
90300	7.590691	0
90500	7.624147	0
90700	7.657676	3
90900	7.691278	3
91100	7.724954	1
91300	7.758704	1
91500	7.792527	0
91700	7.826424	0
91900	7.860395	0
92100	7.894439	1
92300	7.928556	1
92500	7.962747	1
92700	7.997012	0
92900	8.031350	48
93100	8.065762	0
93300	8.100247	1
93500	8.134806	0
93700	8.169438	0
93900	8.204144	0
94100	8.238924	0
94300	8.273777	1
94500	8.308704	0
94700	8.343704	0
94900	8.378778	1
95100	8.413925	1
95300	8.449146	0
95500	8.484441	0
95700	8.519809	0
95900	8.555251	0
96100	8.590766	0
96300	8.626355	0
96500	8.662017	0
96700	8.697753	0
96900	8.733562	0
97100	8.769446	0
97300	8.805402	0
97500	8.841432	0
97700	8.877536	0
97900	8.913713	0
98100	8.949964	0
98300	8.986289	0
98500	9.022687	7
98700	9.059158	0
98900	9.095703	0
99100	9.132322	0
99300	9.169014	0
99500	9.205780	0
99700	9.242620	0
99900	9.279532	0
100100	9.316519	0
100300	9.353579	0
100500	9.390713	0
100700	9.427920	0
100900	9.465201	0
101100	9.502555	0
101300	9.539983	0
101500	9.577484	0
101700	9.615059	0
101900	9.652708	0
102100	9.690430	0
102300	9.728226	0
102500	9.766095	0
102700	9.804038	0
102900	9.842054	0
103100	9.880144	0
103300	9.918308	0
103500	9.956545	0
103700	9.994856	73
103900	10.033240	20
104100	10.071698	0
104300	10.110229	0
104500	10.148834	0
104700	10.187512	0
104900	10.226265	0
105100	10.265090	0
105300	10.303989	0
105500	10.342962	0
105700	10.382008	0
105900	10.421128	0
106100	10.460322	0
106300	10.499589	0
106500	10.538929	0
106700	10.578343	0
106900	10.617831	0
107100	10.657392	0
107300	10.697027	0
107500	10.736736	0
107700	10.776517	0
107900	10.816373	0
108100	10.856302	0
108300	10.896305	0
108500	10.936381	0
108700	10.976531	0
108900	11.016754	322
109100	11.057051	0
109300	11.097421	0
109500	11.137865	0
109700	11.178383	0
109900	11.218974	0
110100	11.259639	0
110300	11.300377	0
110500	11.341189	0
110700	11.382074	0
110900	11.423033	0
111100	11.464066	0
111300	11.505172	0
111500	11.546352	0
111700	11.587605	0
111900	11.628932	0
112100	11.670332	0
112300	11.711806	0
112500	11.753354	0
112700	11.794975	0
112900	11.836669	0
113100	11.878437	0
113300	11.920279	0
113500	11.962194	3
113700	12.004183	831
113900	12.046246	5
114100	12.088382	0
114300	12.130591	0
114500	12.172875	0
114700	12.215231	0
114900	12.257661	0
115100	12.300165	0
115300	12.342743	0
115500	12.385394	0
115700	12.428118	0
115900	12.470916	0
116100	12.513788	0
116300	12.556733	0
116500	12.599752	0
116700	12.642844	0
116900	12.686010	0
117100	12.729250	0
117300	12.772563	0
117500	12.815949	0
117700	12.859409	0
117900	12.902943	0
118100	12.946550	0
118300	12.990231	937
118500	13.033986	101
118700	13.077814	0
118900	13.121715	0
119100	13.165690	0
119300	13.209739	0
119500	13.253861	0
119700	13.298057	0
119900	13.342326	0
120100	13.386669	0
120300	13.431086	0
120500	13.475576	0
120700	13.520139	0
120900	13.564777	0
121100	13.609487	0
121300	13.654272	0
121500	13.699130	0
121700	13.744061	0
121900	13.789066	0
122100	13.834145	0
122300	13.879297	0
122500	13.924522	1
122700	13.969822	2
122900	14.015195	2389
123100	14.060641	1
123300	14.106161	1
123500	14.151754	0
123700	14.197422	0
123900	14.243162	0
124100	14.288976	0
124300	14.334864	0
124500	14.380826	0
124700	14.426860	0
124900	14.472969	0
125100	14.519151	0
125300	14.565407	1
125500	14.611736	1
125700	14.658138	0
125900	14.704615	2
126100	14.751165	0
126300	14.797788	0
126500	14.844485	0
126700	14.891256	1
126900	14.938100	2
127100	14.985017	43
127300	15.032009	12819
127500	15.079073	16
127700	15.126212	2
127900	15.173424	0
128100	15.220709	1
128300	15.268068	0
128500	15.315501	1
128700	15.363007	2
128900	15.410587	0
129100	15.458240	0
129300	15.505967	1
129500	15.553767	0
129700	15.601641	1
129900	15.649589	0
130100	15.697610	1
130300	15.745705	0
130500	15.793873	2
130700	15.842115	1
130900	15.890430	0
131100	15.938819	0
131300	15.987282	89
131500	16.035818	284
131700	16.084428	1
131900	16.133111	0
132100	16.181868	0
132300	16.230698	1
132500	16.279602	0
132700	16.328579	0
132900	16.377630	0
133100	16.426755	0
133300	16.475953	0
133500	16.525225	0
133700	16.574570	0
133900	16.623989	0
134100	16.673481	0
134300	16.723047	0
134500	16.772687	0
134700	16.822400	0
134900	16.872187	0
135100	16.922047	0
135300	16.971981	2
135500	17.021988	309
135700	17.072069	0
135900	17.122224	1
136100	17.172452	0
136300	17.222753	1
136500	17.273129	1
136700	17.323577	0
136900	17.374100	0
137100	17.424696	0
137300	17.475365	0
137500	17.526108	0
137700	17.576925	0
137900	17.627815	0
138100	17.678778	0
138300	17.729816	0
138500	17.780927	0
138700	17.832111	0
138900	17.883369	0
139100	17.934700	1
139300	17.986106	89
139500	18.037584	3170
139700	18.089136	17
139900	18.140762	0
140100	18.192462	3
140300	18.244234	1
140500	18.296081	2
140700	18.348001	0
140900	18.399995	0
141100	18.452062	0
141300	18.504202	0
141500	18.556417	2
141700	18.608705	0
141900	18.661066	0
142100	18.713501	0
142300	18.766010	2
142500	18.818592	0
142700	18.871247	0
142900	18.923977	0
143100	18.976779	29
143300	19.029656	1365
143500	19.082606	2
143700	19.135629	0
143900	19.188726	1
144100	19.241897	0
144300	19.295141	0
144500	19.348459	0
144700	19.401850	0
144900	19.455315	0
145100	19.508854	0
145300	19.562466	0
145500	19.616151	0
145700	19.669910	0
145900	19.723743	0
146100	19.777649	0
146300	19.831629	0
146500	19.885683	0
146700	19.939810	1
146900	19.994010	39
147100	20.048284	10
147300	20.102632	0
147500	20.157053	0
147700	20.211548	0
147900	20.266116	0
148100	20.320758	0
148300	20.375474	1
148500	20.430263	1
148700	20.485125	2
148900	20.540061	0
149100	20.595071	0
149300	20.650154	2
149500	20.705311	0
149700	20.760542	2
149900	20.815846	0
150100	20.871223	0
150300	20.926674	0
150500	20.982199	0
150700	21.037797	10
150900	21.093469	1
151100	21.149215	4
151300	21.205034	5
151500	21.260926	1
151700	21.316892	0
151900	21.372932	0
152100	21.429045	0
152300	21.485232	0
152500	21.541492	3
152700	21.597826	6
152900	21.654233	12
153100	21.710714	3
153300	21.767269	3
153500	21.823897	0
153700	21.880599	0
153900	21.937374	1
154100	21.994223	0
154300	22.051145	3
154500	22.108141	1
154700	22.165211	1
154900	22.222354	1
155100	22.279571	0
155300	22.336861	0
155500	22.394225	0
155700	22.451662	6
155900	22.509173	2
156100	22.566757	331
156300	22.624415	16
156500	22.682147	21
156700	22.739952	19
156900	22.797831	6
157100	22.855783	61
157300	22.913809	387
157500	22.971909	1504790
157700	23.030082	67703
157900	23.088328	1857
158100	23.146648	1352
158300	23.205042	952
158500	23.263509	633
158700	23.322050	448
158900	23.380664	359
159100	23.439352	225
159300	23.498114	158
159500	23.556949	133
159700	23.615858	96
159900	23.674840	77
160100	23.733896	71
160300	23.793025	66
160500	23.852228	50
160700	23.911504	40
160900	23.970854	3590
161100	24.030278	341
161300	24.089775	39
161500	24.149346	27
161700	24.208990	28
161900	24.268708	21
162100	24.328499	14
162300	24.388364	14
162500	24.448303	22
162700	24.508315	10
162900	24.568401	12
163100	24.628560	5
163300	24.688793	9
163500	24.749099	6
163700	24.809479	11
163900	24.869932	6
164100	24.930459	6
164300	24.991060	1131
164500	25.051734	344
164700	25.112482	9
164900	25.173303	5
165100	25.234198	7
165300	25.295167	3
165500	25.356209	4
165700	25.417324	7
165900	25.478513	1
166100	25.539776	6
166300	25.601112	3
166500	25.662522	3
166700	25.724005	6
166900	25.785562	7
167100	25.847193	3
167300	25.908897	13
167500	25.970675	837
167700	26.032526	5016
167900	26.094451	5
168100	26.156449	1
168300	26.218521	2
168500	26.280666	4
168700	26.342885	2
168900	26.405178	1
169100	26.467544	5
169300	26.529984	3
169500	26.592497	19
169700	26.655084	4
169900	26.717744	2
170100	26.780478	1
170300	26.843286	1
170500	26.906167	18
170700	26.969122	4399
170900	27.032150	59613
171100	27.095252	82
171300	27.158427	23
171500	27.221676	14
171700	27.284998	10
171900	27.348395	10
172100	27.411864	17
172300	27.475407	10
172500	27.539024	9
172700	27.602714	6
172900	27.666478	3
173100	27.730316	3
173300	27.794227	3
173500	27.858211	6
173700	27.922269	29
173900	27.986401	8382
174100	28.050606	9074
174300	28.114885	10
174500	28.179238	12
174700	28.243664	6
174900	28.308163	5
175100	28.372736	1
175300	28.437383	4
175500	28.502103	4
175700	28.566897	25
175900	28.631764	5
176100	28.696705	8
176300	28.761719	2
176500	28.826808	1
176700	28.891969	12
176900	28.957204	1827
177100	29.022513	74828
177300	29.087895	556
177500	29.153351	42
177700	29.218881	20
177900	29.284484	9
178100	29.350160	20
178300	29.415910	6
178500	29.481734	13
178700	29.547631	14
178900	29.613602	5
179100	29.679646	6
179300	29.745764	10
179500	29.811956	5
179700	29.878221	10
179900	29.944559	188
180100	30.010972	5570
180300	30.077457	556
180500	30.144017	8
180700	30.210650	4
180900	30.277356	3
181100	30.344136	2
181300	30.410990	1
181500	30.477917	2
181700	30.544917	6
181900	30.611992	4
182100	30.679139	2
182300	30.746361	4
182500	30.813656	1
182700	30.881024	8
182900	30.948466	110
183100	31.015982	16979
183300	31.083571	47
183500	31.151234	12
183700	31.218970	20
183900	31.286780	18
184100	31.354664	2
184300	31.422621	3
184500	31.490651	5
184700	31.558756	14
184900	31.626933	0
185100	31.695185	3
185300	31.763509	4
185500	31.831908	6
185700	31.900380	1
185900	31.968925	44
186100	32.037545	365
186300	32.106237	1
186500	32.175003	2
186700	32.243843	2
186900	32.312757	1
187100	32.381744	0
187300	32.450804	1
187500	32.519938	1
187700	32.589146	0
187900	32.658427	0
188100	32.727782	0
188300	32.797210	0
188500	32.866712	2
188700	32.936287	0
188900	33.005936	137
189100	33.075659	15
189300	33.145455	1
189500	33.215325	0
189700	33.285268	0
189900	33.355285	5
190100	33.425375	9
190300	33.495539	0
190500	33.565777	1
190700	33.636088	0
190900	33.706472	0
191100	33.776931	0
191300	33.847462	2
191500	33.918068	1
191700	33.988747	16
191900	34.059499	26
192100	34.130325	0
192300	34.201225	0
192500	34.272198	1
192700	34.343245	1
192900	34.414365	0
193100	34.485559	0
193300	34.556826	0
193500	34.628167	1
193700	34.699582	1
193900	34.771070	4
194100	34.842632	1
194300	34.914267	1
194500	34.985976	140
194700	35.057758	20
194900	35.129614	1
195100	35.201544	2
195300	35.273547	0
195500	35.345623	2
195700	35.417773	0
195900	35.489997	1
196100	35.562294	4
196300	35.634665	0
196500	35.707110	0
196700	35.779628	0
196900	35.852219	1
197100	35.924885	4
197300	35.997623	254
197500	36.070436	6
197700	36.143321	0
197900	36.216281	0
198100	36.289314	1
198300	36.362420	0
198500	36.435600	0
198700	36.508854	1
198900	36.582181	2
199100	36.655582	4
199300	36.729056	0
199500	36.802604	1
199700	36.876226	9
199900	36.949921	185
200100	37.023689	1380
200300	37.097532	11
200500	37.171447	21
200700	37.245437	17
200900	37.319499	2
201100	37.393636	5
201300	37.467846	1
201500	37.542129	3
201700	37.616487	3
201900	37.690917	0
202100	37.765421	2
202300	37.839999	1
202500	37.914651	15
202700	37.989376	3172
202900	38.064174	122
203100	38.139046	3
203300	38.213992	8
203500	38.289011	4
203700	38.364104	9
203900	38.439270	415
204100	38.514510	36
204300	38.589823	57
204500	38.665210	21
204700	38.740671	25
204900	38.816205	344
205100	38.891813	2018
205300	38.967494	2115970
205500	39.043249	20468
205700	39.119077	4425
205900	39.194979	4331
206100	39.270955	3461
206300	39.347004	2513
206500	39.423127	1847
206700	39.499323	1418
206900	39.575593	1143
207100	39.651936	900
