# Binning: 200 channels
# Deadtime Correction: on
Channel	m/z	Intensity
100	0.000395	0
300	0.000669	0
500	0.001016	0
700	0.001434	0
900	0.001925	0
1100	0.002488	0
1300	0.003122	0
1500	0.003829	0
1700	0.004608	0
1900	0.005459	0
2100	0.006381	0
2300	0.007376	0
2500	0.008443	0
2700	0.009582	0
2900	0.010793	0
3100	0.012076	0
3300	0.013431	0
3500	0.014859	0
3700	0.016358	0
3900	0.017929	0
4100	0.019572	0
4300	0.021287	0
4500	0.023075	0
4700	0.024934	0
4900	0.026866	0
5100	0.028869	0
5300	0.030945	0
5500	0.033092	0
5700	0.035312	0
5900	0.037603	0
6100	0.039967	0
6300	0.042403	0
6500	0.044910	0
6700	0.047490	0
6900	0.050142	0
7100	0.052866	0
7300	0.055662	0
7500	0.058530	0
7700	0.061470	0
7900	0.064482	0
8100	0.067566	0
8300	0.070722	0
8500	0.073950	0
8700	0.077250	0
8900	0.080622	0
9100	0.084066	0
9300	0.087583	0
9500	0.091171	0
9700	0.094831	0
9900	0.098564	0
10100	0.102368	0
10300	0.106245	1
10500	0.110193	0
10700	0.114214	0
10900	0.118307	0
11100	0.122471	0
11300	0.126708	0
11500	0.131017	0
11700	0.135397	0
11900	0.139850	0
12100	0.144375	0
12300	0.148972	0
12500	0.153641	0
12700	0.158382	0
12900	0.163195	0
13100	0.168080	0
13300	0.173037	0
13500	0.178066	0
13700	0.183167	0
13900	0.188341	0
14100	0.193586	0
14300	0.198903	0
14500	0.204292	0
14700	0.209754	0
14900	0.215287	0
15100	0.220893	0
15300	0.226570	0
15500	0.232320	0
15700	0.238141	0
15900	0.244035	0
16100	0.250000	0
16300	0.256038	0
16500	0.262148	0
16700	0.268330	0
16900	0.274583	0
17100	0.280909	0
17300	0.287307	0
17500	0.293777	0
17700	0.300319	0
17900	0.306933	0
18100	0.313619	1
18300	0.320377	0
18500	0.327207	0
18700	0.334110	0
18900	0.341084	0
19100	0.348130	0
19300	0.355248	0
19500	0.362439	0
19700	0.369701	0
19900	0.377035	1
20100	0.384442	0
20300	0.391920	0
20500	0.399471	0
20700	0.407093	0
20900	0.414788	0
21100	0.422555	0
21300	0.430393	0
21500	0.438304	0
21700	0.446287	0
21900	0.454342	1
22100	0.462469	0
22300	0.470667	0
22500	0.478938	0
22700	0.487281	0
22900	0.495696	0
23100	0.504183	0
23300	0.512743	0
23500	0.521374	0
23700	0.530077	0
23900	0.538852	0
24100	0.547699	0
24300	0.556619	0
24500	0.565610	0
24700	0.574673	0
24900	0.583809	0
25100	0.593016	0
25300	0.602296	0
25500	0.611647	0
25700	0.621071	0
25900	0.630566	0
26100	0.640134	0
26300	0.649774	0
26500	0.659485	0
26700	0.669269	0
26900	0.679125	0
27100	0.689053	0
27300	0.699053	0
27500	0.709125	0
27700	0.719269	0
27900	0.729485	0
28100	0.739773	0
28300	0.750133	0
28500	0.760565	0
28700	0.771069	0
28900	0.781645	0
29100	0.792293	0
29300	0.803014	0
29500	0.813806	0
29700	0.824670	0
29900	0.835607	0
30100	0.846615	0
30300	0.857696	0
30500	0.868848	0
30700	0.880073	0
30900	0.891370	0
31100	0.902738	0
31300	0.914179	0
31500	0.925692	0
31700	0.937276	0
31900	0.948933	0
32100	0.960662	0
32300	0.972463	0
32500	0.984336	0
32700	0.996281	1
32900	1.008298	1700
33100	1.020387	1
33300	1.032548	0
33500	1.044781	0
33700	1.057086	0
33900	1.069463	0
34100	1.081913	0
34300	1.094434	0
34500	1.107027	0
34700	1.119693	0
34900	1.132430	0
35100	1.145240	0
35300	1.158121	0
35500	1.171075	0
35700	1.184100	0
35900	1.197198	0
36100	1.210367	0
36300	1.223609	0
36500	1.236923	0
36700	1.250309	0
36900	1.263766	0
37100	1.277296	0
37300	1.290898	0
37500	1.304572	0
37700	1.318318	0
37900	1.332136	0
38100	1.346026	0
38300	1.359988	0
38500	1.374022	0
38700	1.388128	0
38900	1.402307	0
39100	1.416557	0
39300	1.430879	0
39500	1.445273	0
39700	1.459740	0
39900	1.474278	0
40100	1.488889	0
40300	1.503571	0
40500	1.518326	0
40700	1.533152	0
40900	1.548051	0
41100	1.563022	0
41300	1.578064	0
41500	1.593179	0
41700	1.608366	0
41900	1.623624	0
42100	1.638955	0
42300	1.654358	0
42500	1.669833	0
42700	1.685380	0
42900	1.700999	0
43100	1.716690	0
43300	1.732453	0
43500	1.748288	0
43700	1.764196	0
43900	1.780175	0
44100	1.796226	0
44300	1.812349	0
44500	1.828545	0
44700	1.844812	0
44900	1.861151	0
45100	1.877563	0
45300	1.894046	0
45500	1.910602	0
45700	1.927229	0
45900	1.943929	0
46100	1.960701	0
46300	1.977544	0
46500	1.994460	0
46700	2.011448	105
46900	2.028508	1
47100	2.045639	0
47300	2.062843	0
47500	2.080119	0
47700	2.097467	0
47900	2.114887	0
48100	2.132379	0
48300	2.149943	0
48500	2.167580	0
48700	2.185288	0
48900	2.203068	0
49100	2.220920	0
49300	2.238844	0
49500	2.256841	0
49700	2.274909	0
49900	2.293049	0
50100	2.311262	0
50300	2.329546	0
50500	2.347903	0
50700	2.366332	0
50900	2.384832	0
51100	2.403405	0
51300	2.422049	0
51500	2.440766	0
51700	2.459555	0
51900	2.478416	0
52100	2.497349	0
52300	2.516353	0
52500	2.535430	0
52700	2.554579	0
52900	2.573800	0
53100	2.593093	0
53300	2.612458	0
53500	2.631896	0
53700	2.651405	0
53900	2.670986	0
54100	2.690639	0
54300	2.710365	0
54500	2.730162	0
54700	2.750031	0
54900	2.769973	0
55100	2.789986	0
55300	2.810072	0
55500	2.830229	0
55700	2.850459	0
55900	2.870760	0
56100	2.891134	0
56300	2.911580	0
56500	2.932097	0
56700	2.952687	0
56900	2.973349	0
57100	2.994083	0
57300	3.014889	20
57500	3.035766	1
57700	3.056716	0
57900	3.077738	0
58100	3.098832	0
58300	3.119999	0
58500	3.141237	0
58700	3.162547	0
58900	3.183929	0
59100	3.205383	0
59300	3.226910	0
59500	3.248508	0
59700	3.270178	0
59900	3.291921	0
60100	3.313735	0
60300	3.335622	0
60500	3.357580	0
60700	3.379611	0
60900	3.401713	0
61100	3.423888	0
61300	3.446135	0
61500	3.468453	0
61700	3.490844	0
61900	3.513307	0
62100	3.535842	0
62300	3.558449	0
62500	3.581128	0
62700	3.603878	0
62900	3.626701	0
63100	3.649597	0
63300	3.672564	0
63500	3.695603	0
63700	3.718714	0
63900	3.741897	0
64100	3.765152	0
64300	3.788480	0
64500	3.811879	0
64700	3.835350	0
64900	3.858894	0
65100	3.882509	0
65300	3.906197	0
65500	3.929956	0
65700	3.953788	0
65900	3.977691	0
66100	4.001667	0
66300	4.025715	0
66500	4.049834	0
66700	4.074026	0
66900	4.098290	0
67100	4.122626	0
67300	4.147034	0
67500	4.171514	0
67700	4.196066	0
67900	4.220690	0
68100	4.245386	0
68300	4.270154	0
68500	4.294994	0
68700	4.319906	0
68900	4.344890	0
69100	4.369946	0
69300	4.395075	0
69500	4.420275	0
69700	4.445547	0
69900	4.470892	0
70100	4.496308	0
70300	4.521797	0
70500	4.547357	0
70700	4.572990	0
70900	4.598694	0
71100	4.624471	0
71300	4.650320	0
71500	4.676240	0
71700	4.702233	0
71900	4.728298	0
72100	4.754435	0
72300	4.780644	0
72500	4.806925	0
72700	4.833278	0
72900	4.859703	0
73100	4.886200	0
73300	4.912769	0
73500	4.939410	0
73700	4.966123	0
73900	4.992908	0
74100	5.019765	0
74300	5.046695	0
74500	5.073696	0
74700	5.100769	0
74900	5.127915	0
75100	5.155132	0
75300	5.182422	0
75500	5.209783	0
75700	5.237217	0
75900	5.264722	0
76100	5.292300	0
76300	5.319950	0
76500	5.347671	0
76700	5.375465	0
76900	5.403331	0
77100	5.431269	0
77300	5.459279	0
77500	5.487361	0
77700	5.515515	0
77900	5.543741	0
78100	5.572039	0
78300	5.600409	0
78500	5.628851	0
78700	5.657365	0
78900	5.685951	0
79100	5.714609	0
79300	5.743340	0
79500	5.772142	0
79700	5.801016	0
79900	5.829963	0
80100	5.858981	0
80300	5.888072	0
80500	5.917234	0
80700	5.946469	0
80900	5.975775	0
81100	6.005154	16
81300	6.034605	2
81500	6.064127	0
81700	6.093722	0
81900	6.123389	0
82100	6.153128	0
82300	6.182939	0
82500	6.212822	0
82700	6.242776	0
82900	6.272803	0
83100	6.302903	0
83300	6.333074	0
83500	6.363317	0
83700	6.393632	0
83900	6.424019	0
84100	6.454478	0
84300	6.485010	0
84500	6.515613	0
84700	6.546288	0
84900	6.577036	0
85100	6.607855	0
85300	6.638747	0
85500	6.669710	0
85700	6.700746	0
85900	6.731853	0
86100	6.763033	0
86300	6.794285	0
86500	6.825608	0
86700	6.857004	0
86900	6.888472	0
87100	6.920012	0
87300	6.951624	0
87500	6.983307	0
87700	7.015063	209
87900	7.046891	5
88100	7.078791	0
88300	7.110764	1
88500	7.142808	0
88700	7.174924	0
88900	7.207112	0
89100	7.239372	0
89300	7.271705	1
89500	7.304109	0
89700	7.336585	0
89900	7.369134	0
90100	7.401754	0
90300	7.434447	0
90500	7.467211	0
90700	7.500048	0
90900	7.532956	0
91100	7.565937	0
91300	7.598989	0
91500	7.632114	0
91700	7.665311	0
91900	7.698580	0
92100	7.731921	0
92300	7.765333	0
92500	7.798818	0
92700	7.832375	0
92900	7.866004	0
93100	7.899705	0
93300	7.933478	0
93500	7.967324	0
93700	8.001241	0
93900	8.035230	0
94100	8.069291	0
94300	8.103424	0
94500	8.137630	0
94700	8.171907	0
94900	8.206256	0
95100	8.240678	0
95300	8.275171	0
95500	8.309737	0
95700	8.344374	0
95900	8.379084	0
96100	8.413866	0
96300	8.448719	0
96500	8.483645	0
96700	8.518643	0
96900	8.553713	0
97100	8.588854	0
97300	8.624068	0
97500	8.659354	0
97700	8.694712	0
97900	8.730142	0
98100	8.765644	0
98300	8.801218	0
98500	8.836864	0
98700	8.872583	0
98900	8.908373	0
99100	8.944235	0
99300	8.980169	0
99500	9.016176	0
99700	9.052254	0
99900	9.088404	0
100100	9.124627	0
100300	9.160921	0
100500	9.197288	0
100700	9.233726	0
100900	9.270237	0
101100	9.306820	0
101300	9.343474	0
101500	9.380201	0
101700	9.417000	0
101900	9.453871	0
102100	9.490813	0
102300	9.527828	0
102500	9.564915	0
102700	9.602074	0
102900	9.639305	0
103100	9.676608	0
103300	9.713983	0
103500	9.751430	0
103700	9.788949	0
103900	9.826541	0
104100	9.864204	0
104300	9.901939	0
104500	9.939746	0
104700	9.977626	0
104900	10.015577	6
105100	10.053601	0
105300	10.091696	0
105500	10.129864	0
105700	10.168103	0
105900	10.206415	0
106100	10.244798	0
106300	10.283254	0
106500	10.321782	0
106700	10.360382	0
106900	10.399053	0
107100	10.437797	0
107300	10.476613	0
107500	10.515501	0
107700	10.554461	0
107900	10.593493	0
108100	10.632597	0
108300	10.671773	0
108500	10.711021	0
108700	10.750341	0
108900	10.789734	0
109100	10.829198	0
109300	10.868734	0
109500	10.908342	0
109700	10.948023	0
109900	10.987775	8
110100	11.027600	11
110300	11.067496	0
110500	11.107464	0
110700	11.147505	0
110900	11.187618	0
111100	11.227802	0
111300	11.268059	0
111500	11.308388	0
111700	11.348788	0
111900	11.389261	0
112100	11.429806	0
112300	11.470423	0
112500	11.511112	0
112700	11.551873	0
112900	11.592706	0
113100	11.633611	0
113300	11.674588	0
113500	11.715637	0
113700	11.756758	0
113900	11.797951	0
114100	11.839217	0
114300	11.880554	0
114500	11.921963	0
114700	11.963444	1
114900	12.004998	1538
115100	12.046623	0
115300	12.088321	0
115500	12.130090	0
115700	12.171932	0
115900	12.213845	0
116100	12.255831	0
116300	12.297889	0
116500	12.340018	0
116700	12.382220	0
116900	12.424494	0
117100	12.466840	0
117300	12.509258	0
117500	12.551748	0
117700	12.594310	0
117900	12.636944	0
118100	12.679650	0
118300	12.722428	0
118500	12.765278	0
118700	12.808200	0
118900	12.851194	0
119100	12.894260	0
119300	12.937399	0
119500	12.980609	36
119700	13.023891	898
119900	13.067246	0
120100	13.110672	0
120300	13.154171	0
120500	13.197741	0
120700	13.241384	0
120900	13.285098	0
121100	13.328885	0
121300	13.372744	0
121500	13.416674	0
121700	13.460677	0
121900	13.504752	0
122100	13.548899	0
122300	13.593117	0
122500	13.637408	0
122700	13.681771	0
122900	13.726206	0
123100	13.770713	0
123300	13.815292	0
123500	13.859944	0
123700	13.904667	0
123900	13.949462	0
124100	13.994329	809
124300	14.039268	180
124500	14.084280	0
124700	14.129363	0
124900	14.174518	0
125100	14.219746	0
125300	14.265045	0
125500	14.310417	0
125700	14.355860	0
125900	14.401376	0
126100	14.446964	0
126300	14.492623	0
126500	14.538355	0
126700	14.584159	0
126900	14.630035	0
127100	14.675982	0
127300	14.722002	0
127500	14.768094	0
127700	14.814258	0
127900	14.860494	0
128100	14.906802	0
128300	14.953182	1
128500	14.999634	1250
128700	15.046158	1211
128900	15.092755	2
129100	15.139423	0
129300	15.186163	0
129500	15.232975	0
129700	15.279860	0
129900	15.326816	0
130100	15.373845	0
130300	15.420945	0
130500	15.468118	0
130700	15.515362	0
130900	15.562679	0
131100	15.610067	0
131300	15.657528	1
131500	15.705061	0
131700	15.752665	0
131900	15.800342	0
132100	15.848091	0
132300	15.895912	0
132500	15.943805	0
132700	15.991770	32
132900	16.039807	36
133100	16.087916	1
133300	16.136097	0
133500	16.184350	0
133700	16.232675	0
133900	16.281072	0
134100	16.329542	0
134300	16.378083	0
134500	16.426696	0
134700	16.475382	0
134900	16.524139	0
135100	16.572968	0
135300	16.621870	0
135500	16.670843	0
135700	16.719889	0
135900	16.769006	0
136100	16.818196	0
136300	16.867458	0
136500	16.916791	0
136700	16.966197	0
136900	17.015675	38
137100	17.065225	1
137300	17.114847	0
137500	17.164541	0
137700	17.214307	0
137900	17.264145	0
138100	17.314055	0
138300	17.364037	0
138500	17.414091	0
138700	17.464217	0
138900	17.514415	0
139100	17.564685	0
139300	17.615028	0
139500	17.665442	0
139700	17.715928	0
139900	17.766487	0
140100	17.817117	0
140300	17.867819	0
140500	17.918594	0
140700	17.969441	0
140900	18.020359	226
141100	18.071350	16
141300	18.122412	1
141500	18.173547	0
141700	18.224754	1
141900	18.276033	0
142100	18.327383	0
142300	18.378806	0
142500	18.430301	0
142700	18.481868	0
142900	18.533507	0
143100	18.585218	0
143300	18.637001	0
143500	18.688856	0
143700	18.740784	0
143900	18.792783	0
144100	18.844854	0
144300	18.896997	0
144500	18.949213	0
144700	19.001500	100
144900	19.053859	4
145100	19.106291	0
145300	19.158794	0
145500	19.211370	0
145700	19.264017	0
145900	19.316737	0
146100	19.369528	0
146300	19.422392	0
146500	19.475328	0
146700	19.528336	0
146900	19.581415	0
147100	19.634567	0
147300	19.687791	0
147500	19.741087	0
147700	19.794455	0
147900	19.847895	0
148100	19.901407	0
148300	19.954991	2
148500	20.008647	0
148700	20.062375	1
148900	20.116175	0
149100	20.170048	0
149300	20.223992	0
149500	20.278008	0
149700	20.332097	0
149900	20.386257	0
150100	20.440489	0
150300	20.494794	0
150500	20.549170	0
150700	20.603619	0
150900	20.658139	0
151100	20.712732	0
151300	20.767397	0
151500	20.822133	0
151700	20.876942	0
151900	20.931823	0
152100	20.986776	0
152300	21.041801	0
152500	21.096898	0
152700	21.152066	0
152900	21.207307	1
153100	21.262621	0
153300	21.318006	0
153500	21.373463	0
153700	21.428992	0
153900	21.484593	0
154100	21.540266	0
154300	21.596011	4
154500	21.651829	2
154700	21.707718	3
154900	21.763680	0
155100	21.819713	0
155300	21.875818	0
155500	21.931996	0
155700	21.988245	0
155900	22.044567	0
156100	22.100961	0
156300	22.157426	0
156500	22.213964	0
156700	22.270574	0
156900	22.327256	0
157100	22.384009	0
157300	22.440835	2
157500	22.497733	0
157700	22.554703	32
157900	22.611745	33
158100	22.668859	6
158300	22.726045	6
158500	22.783303	7
158700	22.840633	4
158900	22.898036	89
159100	22.955510	21583
159300	23.013056	517594
159500	23.070674	2668
159700	23.128365	1064
159900	23.186127	689
160100	23.243962	458
160300	23.301868	287
160500	23.359847	211
160700	23.417897	167
160900	23.476020	129
161100	23.534214	73
161300	23.592481	77
161500	23.650820	67
161700	23.709230	45
161900	23.767713	30
162100	23.826268	30
162300	23.884895	32
162500	23.943594	17
162700	24.002365	417
162900	24.061208	15
163100	24.120123	12
163300	24.179110	7
163500	24.238169	9
163700	24.297300	7
163900	24.356503	10
164100	24.415778	6
164300	24.475126	9
164500	24.534545	5
164700	24.594036	7
164900	24.653600	8
165100	24.713235	6
165300	24.772943	5
165500	24.832722	6
165700	24.892574	10
165900	24.952497	12
166100	25.012493	446
166300	25.072561	6
166500	25.132700	4
166700	25.192912	4
166900	25.253196	3
167100	25.313552	3
167300	25.373979	5
167500	25.434479	5
167700	25.495051	1
167900	25.555695	0
168100	25.616411	2
168300	25.677199	2
168500	25.738059	3
168700	25.798992	1
168900	25.859996	3
169100	25.921072	10
169300	25.982220	767
169500	26.043441	973
169700	26.104733	0
169900	26.166097	0
170100	26.227534	1
170300	26.289042	1
170500	26.350623	2
170700	26.412275	2
170900	26.474000	0
171100	26.535796	1
171300	26.597665	1
171500	26.659606	1
171700	26.721618	1
171900	26.783703	0
172100	26.845860	0
172300	26.908089	2
172500	26.970390	533
172700	27.032763	8534
172900	27.095208	10
173100	27.157725	0
173300	27.220314	0
173500	27.282975	1
173700	27.345708	0
173900	27.408513	2
174100	27.471391	0
174300	27.534340	1
174500	27.597361	0
174700	27.660454	1
174900	27.723620	0
175100	27.786857	1
175300	27.850167	0
175500	27.913548	1
175700	27.977002	928
175900	28.040527	1549
176100	28.104125	0
176300	28.167795	1
176500	28.231536	0
176700	28.295350	0
176900	28.359236	0
177100	28.423194	0
177300	28.487223	0
177500	28.551325	0
177700	28.615499	0
177900	28.679745	0
178100	28.744063	0
178300	28.808453	1
178500	28.872915	0
178700	28.937450	18
178900	29.002056	3031
179100	29.066734	7188
179300	29.131484	9
179500	29.196307	0
179700	29.261201	2
179900	29.326167	4
180100	29.391206	4
180300	29.456316	3
180500	29.521499	0
180700	29.586753	0
180900	29.652080	0
181100	29.717478	0
181300	29.782949	1
181500	29.848492	0
181700	29.914107	2
181900	29.979793	122
182100	30.045552	937
182300	30.111383	2
182500	30.177286	0
182700	30.243261	0
182900	30.309308	1
183100	30.375427	0
183300	30.441618	0
183500	30.507881	1
183700	30.574216	0
183900	30.640623	0
184100	30.707102	0
184300	30.773654	1
184500	30.840277	0
184700	30.906972	1
184900	30.973740	70
185100	31.040579	844
185300	31.107491	0
185500	31.174474	0
185700	31.241530	5
185900	31.308657	1
186100	31.375857	0
186300	31.443129	2
186500	31.510472	3
186700	31.577888	2
186900	31.645376	0
187100	31.712936	2
187300	31.780567	0
187500	31.848271	2
187700	31.916047	0
187900	31.983895	11
188100	32.051815	24
188300	32.119807	0
188500	32.187871	1
188700	32.256008	0
188900	32.324216	0
189100	32.392496	0
189300	32.460848	0
189500	32.529273	0
189700	32.597769	0
189900	32.666337	0
190100	32.734978	0
190300	32.803690	0
190500	32.872475	1
190700	32.941331	4
190900	33.010260	13
191100	33.079260	0
191300	33.148333	0
191500	33.217478	0
191700	33.286694	0
191900	33.355983	1
192100	33.425344	1
192300	33.494777	0
192500	33.564282	0
192700	33.633859	0
192900	33.703508	1
193100	33.773229	0
193300	33.843022	0
193500	33.912887	0
193700	33.982824	2
193900	34.052833	1
194100	34.122914	0
194300	34.193068	0
194500	34.263293	1
194700	34.333590	0
194900	34.403960	0
195100	34.474401	0
195300	34.544915	0
195500	34.615500	0
195700	34.686158	0
195900	34.756887	0
196100	34.827689	0
196300	34.898562	1
196500	34.969508	45
196700	35.040526	0
196900	35.111616	0
197100	35.182777	0
197300	35.254011	0
197500	35.325317	0
197700	35.396695	0
197900	35.468145	0
198100	35.539667	0
198300	35.611261	0
198500	35.682927	0
198700	35.754665	0
198900	35.826476	0
199100	35.898358	0
199300	35.970312	208
199500	36.042338	12
199700	36.114437	0
199900	36.186607	0
200100	36.258849	0
200300	36.331164	0
200500	36.403550	0
200700	36.476009	0
200900	36.548540	1
201100	36.621142	0
201300	36.693817	0
201500	36.766564	1
201700	36.839382	0
201900	36.912273	15
202100	36.985236	1147
202300	37.058271	24
202500	37.131378	0
202700	37.204557	1
202900	37.277808	0
203100	37.351131	0
203300	37.424526	2
203500	37.497993	0
203700	37.571532	0
203900	37.645143	0
204100	37.718826	0
204300	37.792581	1
204500	37.866409	0
204700	37.940308	37
204900	38.014279	1651
205100	38.088323	5
205300	38.162438	3
205500	38.236626	0
205700	38.310885	1
205900	38.385217	0
206100	38.459621	1
206300	38.534096	3
206500	38.608644	2
206700	38.683264	0
206900	38.757955	3
207100	38.832719	7
207300	38.907555	142
207500	38.982463	40339
207700	39.057443	5854
207900	39.132495	463
208100	39.207619	275
208300	39.282815	206
208500	39.358083	154
