# Binning: 200 channels
# Deadtime Correction: on
Channel	m/z	Intensity
100	0.000221	0
300	0.000435	0
500	0.000721	0
700	0.001079	0
900	0.001508	0
1100	0.002009	0
1300	0.002582	0
1500	0.003227	0
1700	0.003943	0
1900	0.004731	0
2100	0.005591	0
2300	0.006523	0
2500	0.007526	0
2700	0.008601	0
2900	0.009748	0
3100	0.010966	0
3300	0.012257	0
3500	0.013619	0
3700	0.015052	0
3900	0.016558	0
4100	0.018135	0
4300	0.019784	0
4500	0.021505	0
4700	0.023298	0
4900	0.025162	0
5100	0.027098	0
5300	0.029106	0
5500	0.031185	0
5700	0.033337	0
5900	0.035560	0
6100	0.037854	0
6300	0.040221	0
6500	0.042659	0
6700	0.045169	0
6900	0.047751	0
7100	0.050404	0
7300	0.053130	0
7500	0.055927	0
7700	0.058795	0
7900	0.061736	0
8100	0.064748	0
8300	0.067832	0
8500	0.070988	0
8700	0.074215	0
8900	0.077515	0
9100	0.080886	0
9300	0.084328	0
9500	0.087843	0
9700	0.091429	0
9900	0.095087	0
10100	0.098817	0
10300	0.102618	0
10500	0.106491	0
10700	0.110436	0
10900	0.114453	0
11100	0.118542	0
11300	0.122702	0
11500	0.126934	0
11700	0.131237	0
11900	0.135613	0
12100	0.140060	0
12300	0.144579	0
12500	0.149170	0
12700	0.153832	0
12900	0.158566	0
13100	0.163372	0
13300	0.168250	0
13500	0.173199	0
13700	0.178220	0
13900	0.183313	0
14100	0.188478	0
14300	0.193714	0
14500	0.199023	0
14700	0.204403	0
14900	0.209854	0
15100	0.215378	0
15300	0.220973	0
15500	0.226640	0
15700	0.232378	0
15900	0.238189	0
16100	0.244071	0
16300	0.250025	0
16500	0.256050	0
16700	0.262148	0
16900	0.268317	0
17100	0.274558	0
17300	0.280870	0
17500	0.287255	0
17700	0.293711	0
17900	0.300239	0
18100	0.306838	0
18300	0.313510	0
18500	0.320253	0
18700	0.327068	0
18900	0.333954	0
19100	0.340912	0
19300	0.347943	0
19500	0.355044	0
19700	0.362218	0
19900	0.369463	0
20100	0.376780	0
20300	0.384169	0
20500	0.391630	0
20700	0.399162	0
20900	0.406766	0
21100	0.414442	0
21300	0.422190	0
21500	0.430009	0
21700	0.437900	0
21900	0.445863	0
22100	0.453897	0
22300	0.462004	0
22500	0.470182	0
22700	0.478431	0
22900	0.486753	0
23100	0.495146	0
23300	0.503611	0
23500	0.512148	0
23700	0.520757	0
23900	0.529437	0
24100	0.538189	0
24300	0.547013	0
24500	0.555908	0
24700	0.564876	0
24900	0.573915	0
25100	0.583025	0
25300	0.592208	0
25500	0.601462	0
25700	0.610788	0
25900	0.620186	0
26100	0.629655	0
26300	0.639197	0
26500	0.648810	0
26700	0.658494	0
26900	0.668251	0
27100	0.678079	0
27300	0.687979	0
27500	0.697951	0
27700	0.707994	0
27900	0.718109	0
28100	0.728296	0
28300	0.738555	0
28500	0.748886	0
28700	0.759288	0
28900	0.769762	0
29100	0.780308	1
29300	0.790925	0
29500	0.801614	0
29700	0.812375	0
29900	0.823208	0
30100	0.834112	0
30300	0.845089	0
30500	0.856136	0
30700	0.867256	0
30900	0.878448	0
31100	0.889711	0
31300	0.901046	0
31500	0.912452	0
31700	0.923931	0
31900	0.935481	0
32100	0.947103	0
32300	0.958797	0
32500	0.970562	0
32700	0.982399	0
32900	0.994308	0
33100	1.006289	17110
33300	1.018341	1
33500	1.030465	1
33700	1.042661	0
33900	1.054929	0
34100	1.067268	0
34300	1.079679	0
34500	1.092162	0
34700	1.104717	0
34900	1.117343	1
35100	1.130041	0
35300	1.142811	0
35500	1.155653	0
35700	1.168566	0
35900	1.181551	0
36100	1.194608	0
36300	1.207737	0
36500	1.220937	0
36700	1.234209	0
36900	1.247553	0
37100	1.260969	0
37300	1.274456	0
37500	1.288015	0
37700	1.301646	0
37900	1.315349	0
38100	1.329123	0
38300	1.342969	0
38500	1.356887	0
38700	1.370876	0
38900	1.384938	0
39100	1.399071	0
39300	1.413276	0
39500	1.427552	0
39700	1.441901	1
39900	1.456321	0
40100	1.470812	0
40300	1.485376	0
40500	1.500011	0
40700	1.514718	0
40900	1.529497	0
41100	1.544348	0
41300	1.559270	0
41500	1.574264	0
41700	1.589330	0
41900	1.604467	0
42100	1.619677	0
42300	1.634958	0
42500	1.650310	0
42700	1.665735	0
42900	1.681231	0
43100	1.696799	0
43300	1.712439	0
43500	1.728151	0
43700	1.743934	0
43900	1.759789	0
44100	1.775716	0
44300	1.791714	0
44500	1.807784	0
44700	1.823926	0
44900	1.840140	0
45100	1.856426	0
45300	1.872783	0
45500	1.889212	0
45700	1.905713	0
45900	1.922285	0
46100	1.938929	0
46300	1.955645	0
46500	1.972433	0
46700	1.989292	0
46900	2.006224	46
47100	2.023227	413
47300	2.040301	0
47500	2.057448	0
47700	2.074666	0
47900	2.091956	0
48100	2.109318	0
48300	2.126751	0
48500	2.144256	0
48700	2.161833	0
48900	2.179482	0
49100	2.197202	0
49300	2.214995	0
49500	2.232859	0
49700	2.250794	0
49900	2.268802	0
50100	2.286881	0
50300	2.305032	0
50500	2.323254	0
50700	2.341549	0
50900	2.359915	0
51100	2.378353	0
51300	2.396863	0
51500	2.415444	0
51700	2.434097	0
51900	2.452822	0
52100	2.471619	0
52300	2.490487	0
52500	2.509427	0
52700	2.528439	0
52900	2.547523	0
53100	2.566678	0
53300	2.585905	0
53500	2.605204	0
53700	2.624575	0
53900	2.644017	0
54100	2.663531	0
54300	2.683117	0
54500	2.702775	0
54700	2.722504	0
54900	2.742305	0
55100	2.762178	0
55300	2.782123	0
55500	2.802139	0
55700	2.822227	0
55900	2.842387	0
56100	2.862619	0
56300	2.882922	0
56500	2.903297	0
56700	2.923744	0
56900	2.944263	0
57100	2.964853	0
57300	2.985515	0
57500	3.006249	0
57700	3.027054	48
57900	3.047932	0
58100	3.068881	0
58300	3.089902	0
58500	3.110994	0
58700	3.132158	0
58900	3.153394	0
59100	3.174702	0
59300	3.196082	0
59500	3.217533	0
59700	3.239056	0
59900	3.260651	0
60100	3.282318	0
60300	3.304056	0
60500	3.325866	0
60700	3.347748	0
60900	3.369701	0
61100	3.391726	0
61300	3.413823	0
61500	3.435992	0
61700	3.458233	0
61900	3.480545	0
62100	3.502929	0
62300	3.525385	0
62500	3.547912	0
62700	3.570512	0
62900	3.593183	0
63100	3.615925	0
63300	3.638740	0
63500	3.661626	0
63700	3.684584	0
63900	3.707614	0
64100	3.730715	0
64300	3.753889	0
64500	3.777134	0
64700	3.800450	0
64900	3.823839	0
65100	3.847299	0
65300	3.870831	0
65500	3.894435	0
65700	3.918110	0
65900	3.941857	0
66100	3.965676	0
66300	3.989567	0
66500	4.013529	0
66700	4.037564	0
66900	4.061670	0
67100	4.085847	0
67300	4.110097	0
67500	4.134418	0
67700	4.158811	0
67900	4.183276	0
68100	4.207812	0
68300	4.232420	0
68500	4.257100	0
68700	4.281852	0
68900	4.306675	0
69100	4.331570	0
69300	4.356537	0
69500	4.381576	0
69700	4.406686	0
69900	4.431869	0
70100	4.457122	0
70300	4.482448	0
70500	4.507845	0
70700	4.533315	0
70900	4.558856	0
71100	4.584468	1
71300	4.610153	0
71500	4.635909	0
71700	4.661737	0
71900	4.687636	0
72100	4.713608	0
72300	4.739651	0
72500	4.765766	0
72700	4.791952	0
72900	4.818211	0
73100	4.844541	0
73300	4.870943	0
73500	4.897416	0
73700	4.923962	0
73900	4.950579	0
74100	4.977268	0
74300	5.004028	0
74500	5.030860	0
74700	5.057765	0
74900	5.084740	0
75100	5.111788	0
75300	5.138907	0
75500	5.166098	0
75700	5.193361	0
75900	5.220696	0
76100	5.248102	0
76300	5.275580	0
76500	5.303130	0
76700	5.330752	0
76900	5.358445	0
77100	5.386210	0
77300	5.414047	0
77500	5.441955	0
77700	5.469936	0
77900	5.497988	0
78100	5.526111	0
78300	5.554307	0
78500	5.582574	0
78700	5.610913	0
78900	5.639324	0
79100	5.667807	0
79300	5.696361	0
79500	5.724987	0
79700	5.753685	0
79900	5.782454	0
80100	5.811296	0
80300	5.840209	0
80500	5.869193	0
80700	5.898250	0
80900	5.927378	0
81100	5.956578	0
81300	5.985850	0
81500	6.015193	132
81700	6.044609	1
81900	6.074096	0
82100	6.103654	0
82300	6.133285	0
82500	6.162987	0
82700	6.192761	0
82900	6.222607	0
83100	6.252524	0
83300	6.282514	0
83500	6.312575	0
83700	6.342707	0
83900	6.372912	0
84100	6.403188	0
84300	6.433536	0
84500	6.463956	0
84700	6.494447	0
84900	6.525010	0
85100	6.555645	0
85300	6.586352	0
85500	6.617130	0
85700	6.647981	0
85900	6.678903	0
86100	6.709896	0
86300	6.740962	0
86500	6.772099	0
86700	6.803308	0
86900	6.834588	0
87100	6.865941	0
87300	6.897365	0
87500	6.928861	0
87700	6.960429	0
87900	6.992068	0
88100	7.023779	1689
88300	7.055562	1
88500	7.087417	1
88700	7.119343	0
88900	7.151341	0
89100	7.183411	0
89300	7.215553	0
89500	7.247766	0
89700	7.280051	0
89900	7.312408	0
90100	7.344837	0
90300	7.377337	0
90500	7.409910	0
90700	7.442553	0
90900	7.475269	0
91100	7.508056	0
91300	7.540916	0
91500	7.573846	0
91700	7.606849	0
91900	7.639923	0
92100	7.673069	0
92300	7.706287	0
92500	7.739577	0
92700	7.772938	0
92900	7.806371	0
93100	7.839876	0
93300	7.873453	0
93500	7.907101	0
93700	7.940821	0
93900	7.974613	0
94100	8.008477	0
94300	8.042412	0
94500	8.076419	0
94700	8.110498	0
94900	8.144648	0
95100	8.178871	0
95300	8.213165	0
95500	8.247531	0
95700	8.281968	0
95900	8.316478	0
96100	8.351059	0
96300	8.385711	0
96500	8.420436	0
96700	8.455232	0
96900	8.490100	0
97100	8.525040	0
97300	8.560052	0
97500	8.595135	0
97700	8.630290	0
97900	8.665517	0
98100	8.700815	0
98300	8.736186	0
98500	8.771628	0
98700	8.807141	0
98900	8.842727	0
99100	8.878384	0
99300	8.914113	0
99500	8.949914	0
99700	8.985786	0
99900	9.021731	0
100100	9.057747	0
100300	9.093834	0
100500	9.129994	0
100700	9.166225	0
100900	9.202528	0
101100	9.238903	0
101300	9.275349	0
101500	9.311868	0
101700	9.348458	0
101900	9.385119	0
102100	9.421853	0
102300	9.458658	0
102500	9.495535	1
102700	9.532484	0
102900	9.569504	0
103100	9.606596	0
103300	9.643760	0
103500	9.680996	0
103700	9.718303	0
103900	9.755683	0
104100	9.793134	0
104300	9.830656	0
104500	9.868251	0
104700	9.905917	0
104900	9.943655	0
105100	9.981465	0
105300	10.019346	72
105500	10.057299	0
105700	10.095324	0
105900	10.133421	0
106100	10.171589	0
106300	10.209829	0
106500	10.248141	0
106700	10.286525	0
106900	10.324980	0
107100	10.363508	0
107300	10.402106	1
107500	10.440777	0
107700	10.479519	0
107900	10.518334	0
108100	10.557220	0
108300	10.596177	0
108500	10.635207	0
108700	10.674308	0
108900	10.713481	0
109100	10.752725	0
109300	10.792042	0
109500	10.831430	0
109700	10.870890	0
109900	10.910421	0
110100	10.950025	0
110300	10.989700	183
110500	11.029447	73
110700	11.069265	0
110900	11.109156	0
111100	11.149118	0
111300	11.189151	0
111500	11.229257	0
111700	11.269434	0
111900	11.309684	0
112100	11.350004	0
112300	11.390397	0
112500	11.430861	0
112700	11.471397	0
112900	11.512005	0
113100	11.552685	0
113300	11.593436	0
113500	11.634259	0
113700	11.675154	0
113900	11.716121	0
114100	11.757159	0
114300	11.798269	0
114500	11.839451	0
114700	11.880704	0
114900	11.922030	0
115100	11.963427	9
115300	12.004895	6212
115500	12.046436	2
115700	12.088048	0
115900	12.129732	0
116100	12.171488	0
116300	12.213316	0
116500	12.255215	0
116700	12.297186	0
116900	12.339229	0
117100	12.381343	0
117300	12.423529	0
117500	12.465788	0
117700	12.508117	0
117900	12.550519	0
118100	12.592992	0
118300	12.635537	0
118500	12.678154	0
118700	12.720842	0
118900	12.763603	0
119100	12.806435	0
119300	12.849338	0
119500	12.892314	0
119700	12.935361	0
119900	12.978480	6
120100	13.021671	3968
120300	13.064933	0
120500	13.108267	0
120700	13.151673	0
120900	13.195151	0
121100	13.238701	0
121300	13.282322	0
121500	13.326015	0
121700	13.369779	0
121900	13.413616	0
122100	13.457524	0
122300	13.501504	0
122500	13.545556	0
122700	13.589679	0
122900	13.633874	0
123100	13.678141	0
123300	13.722480	1
123500	13.766891	0
123700	13.811373	0
123900	13.855927	0
124100	13.900552	0
124300	13.945250	0
124500	13.990019	321
124700	14.034860	7228
124900	14.079772	0
125100	14.124757	0
125300	14.169813	0
125500	14.214941	0
125700	14.260141	0
125900	14.305412	0
126100	14.350755	0
126300	14.396170	0
126500	14.441657	0
126700	14.487215	0
126900	14.532845	0
127100	14.578547	2
127300	14.624321	0
127500	14.670166	0
127700	14.716083	0
127900	14.762072	0
128100	14.808133	0
128300	14.854265	0
128500	14.900469	0
128700	14.946745	0
128900	14.993093	148
129100	15.039512	28553
129300	15.086003	3
129500	15.132566	0
129700	15.179201	2
129900	15.225907	0
130100	15.272685	3
130300	15.319535	2
130500	15.366457	3
130700	15.413450	1
130900	15.460515	0
131100	15.507652	3
131300	15.554860	0
131500	15.602141	0
131700	15.649493	0
131900	15.696917	0
132100	15.744412	0
132300	15.791980	0
132500	15.839619	0
132700	15.887329	0
132900	15.935112	0
133100	15.982966	377
133300	16.030892	422
133500	16.078890	1
133700	16.126960	1
133900	16.175101	0
134100	16.223314	0
134300	16.271599	0
134500	16.319955	0
134700	16.368384	0
134900	16.416884	0
135100	16.465455	0
135300	16.514099	0
135500	16.562814	0
135700	16.611601	0
135900	16.660460	0
136100	16.709391	0
136300	16.758393	0
136500	16.807467	0
136700	16.856613	0
136900	16.905830	0
137100	16.955119	0
137300	17.004480	508
137500	17.053913	36
137700	17.103418	0
137900	17.152994	0
138100	17.202642	0
138300	17.252362	0
138500	17.302153	0
138700	17.352016	0
138900	17.401951	0
139100	17.451958	0
139300	17.502036	0
139500	17.552187	1
139700	17.602409	0
139900	17.652702	1
140100	17.703068	1
140300	17.753505	0
140500	17.804014	0
140700	17.854595	0
140900	17.905247	0
141100	17.955971	3
141300	18.006767	723
141500	18.057635	2940
141700	18.108574	8
141900	18.159586	6
142100	18.210669	2
142300	18.261823	1
142500	18.313050	0
142700	18.364348	0
142900	18.415718	0
143100	18.467159	1
143300	18.518673	0
143500	18.570258	1
143700	18.621915	1
143900	18.673644	1
144100	18.725444	0
144300	18.777316	0
144500	18.829260	0
144700	18.881276	0
144900	18.933363	0
145100	18.985522	45
145300	19.037753	538
145500	19.090056	3
145700	19.142430	0
145900	19.194876	0
146100	19.247394	1
146300	19.299984	0
146500	19.352645	2
146700	19.405378	0
146900	19.458183	0
147100	19.511060	2
147300	19.564008	0
147500	19.617028	1
147700	19.670120	1
147900	19.723284	0
148100	19.776519	0
148300	19.829826	0
148500	19.883205	1
148700	19.936656	3
148900	19.990178	46
149100	20.043772	2
149300	20.097438	0
149500	20.151175	1
149700	20.204985	1
149900	20.258866	2
150100	20.312819	1
150300	20.366843	0
150500	20.420940	0
150700	20.475108	1
150900	20.529348	0
151100	20.583659	0
151300	20.638042	0
151500	20.692497	2
151700	20.747024	0
151900	20.801623	0
152100	20.856293	2
152300	20.911035	0
152500	20.965849	0
152700	21.020734	1
152900	21.075692	1
153100	21.130721	2
153300	21.185822	1
153500	21.240994	1
153700	21.296238	5
153900	21.351554	4
154100	21.406942	0
154300	21.462402	3
154500	21.517933	5
154700	21.573536	2
154900	21.629211	2
155100	21.684957	2
155300	21.740776	0
155500	21.796666	0
155700	21.852627	0
155900	21.908661	1
156100	21.964766	4
156300	22.020943	0
156500	22.077192	0
156700	22.133512	0
156900	22.189905	2
157100	22.246368	0
157300	22.302904	0
157500	22.359512	0
157700	22.416191	1
157900	22.472942	0
158100	22.529765	2
158300	22.586659	0
158500	22.643625	0
158700	22.700663	0
158900	22.757773	0
159100	22.814954	4
159300	22.872208	3
159500	22.929533	68
159700	22.986929	2561028
159900	23.044398	11048
160100	23.101938	449
160300	23.159550	360
160500	23.217234	273
160700	23.274989	167
160900	23.332816	111
161100	23.390715	98
161300	23.448686	62
161500	23.506728	39
161700	23.564842	37
161900	23.623028	22
162100	23.681286	30
162300	23.739615	26
162500	23.798017	16
162700	23.856489	12
162900	23.915034	17
163100	23.973650	2104
163300	24.032339	72
163500	24.091099	18
163700	24.149930	8
163900	24.208834	12
164100	24.267809	5
164300	24.326856	9
164500	24.385974	5
164700	24.445165	3
164900	24.504427	5
165100	24.563761	0
165300	24.623166	3
165500	24.682644	2
165700	24.742193	3
165900	24.801814	2
166100	24.861506	2
166300	24.921271	2
166500	24.981107	1551
166700	25.041014	97
166900	25.100994	4
167100	25.161045	1
167300	25.221169	2
167500	25.281363	0
167700	25.341630	0
167900	25.401968	3
168100	25.462378	2
168300	25.522860	0
168500	25.583414	0
168700	25.644039	4
168900	25.704736	1
169100	25.765505	3
169300	25.826346	0
169500	25.887258	2
169700	25.948242	281
169900	26.009298	9513
170100	26.070425	9
170300	26.131625	1
170500	26.192896	0
170700	26.254238	1
170900	26.315653	2
171100	26.377139	2
171300	26.438697	1
171500	26.500327	3
171700	26.562029	2
171900	26.623802	2
172100	26.685647	1
172300	26.747564	1
172500	26.809552	1
172700	26.871613	1
172900	26.933745	60
173100	26.995948	42801
173300	27.058224	4827
173500	27.120571	6
173700	27.182990	3
173900	27.245481	8
174100	27.308043	1
174300	27.370678	3
174500	27.433384	5
174700	27.496161	0
174900	27.559011	2
175100	27.621932	1
175300	27.684925	3
175500	27.747990	2
175700	27.811126	3
175900	27.874335	7
176100	27.937615	170
176300	28.000966	26035
176500	28.064390	1647
176700	28.127885	8
176900	28.191452	7
177100	28.255091	5
177300	28.318801	2
177500	28.382583	0
177700	28.446437	3
177900	28.510363	2
178100	28.574360	0
178300	28.638430	0
178500	28.702571	0
178700	28.766783	2
178900	28.831068	2
179100	28.895424	2
179300	28.959852	2316
179500	29.024351	46534
179700	29.088923	107
179900	29.153566	15
180100	29.218281	11
180300	29.283068	5
180500	29.347926	7
180700	29.412856	7
180900	29.477858	4
181100	29.542932	1
181300	29.608077	1
181500	29.673294	2
181700	29.738583	5
181900	29.803944	3
182100	29.869376	2
182300	29.934880	27
182500	30.000456	3982
182700	30.066104	4341
182900	30.131823	7
183100	30.197615	4
183300	30.263477	4
183500	30.329412	1
183700	30.395418	3
183900	30.461497	2
184100	30.527646	1
184300	30.593868	2
184500	30.660161	4
184700	30.726526	2
184900	30.792963	1
185100	30.859472	2
185300	30.926052	3
185500	30.992704	5628
185700	31.059428	503
185900	31.126224	4
186100	31.193091	8
186300	31.260030	22
186500	31.327041	6
186700	31.394124	2
186900	31.461278	6
187100	31.528504	11
187300	31.595802	3
187500	31.663171	1
187700	31.730613	0
187900	31.798126	5
188100	31.865711	0
188300	31.933367	3
188500	32.001096	159
188700	32.068896	281
188900	32.136767	3
189100	32.204711	0
189300	32.272726	2
189500	32.340813	1
189700	32.408972	3
189900	32.477203	5
190100	32.545505	1
190300	32.613879	2
190500	32.682325	1
190700	32.750842	1
190900	32.819432	1
191100	32.888093	2
191300	32.956825	9
191500	33.025630	66
191700	33.094506	0
191900	33.163454	0
192100	33.232474	1
192300	33.301565	0
192500	33.370729	3
192700	33.439964	10
192900	33.509270	1
193100	33.578649	0
193300	33.648099	1
193500	33.717621	1
193700	33.787215	1
193900	33.856880	0
194100	33.926618	1
194300	33.996427	19
194500	34.066307	6
194700	34.136260	1
194900	34.206284	3
195100	34.276380	2
195300	34.346548	0
195500	34.416787	1
195700	34.487098	1
195900	34.557481	0
196100	34.627936	0
196300	34.698463	0
196500	34.769061	0
196700	34.839731	1
196900	34.910472	0
197100	34.981286	390
197300	35.052171	2
197500	35.123128	1
197700	35.194157	1
197900	35.265257	0
198100	35.336429	2
198300	35.407673	1
198500	35.478989	1
198700	35.550376	0
198900	35.621835	1
199100	35.693366	1
199300	35.764969	1
199500	35.836643	0
199700	35.908390	1
199900	35.980207	410
200100	36.052097	5
200300	36.124059	0
200500	36.196092	3
200700	36.268197	1
200900	36.340373	1
201100	36.412622	0
201300	36.484942	2
201500	36.557334	0
201700	36.629797	0
201900	36.702333	3
202100	36.774940	2
202300	36.847619	0
202500	36.920369	125
202700	36.993192	2918
202900	37.066086	5
203100	37.139052	0
203300	37.212089	3
203500	37.285199	7
203700	37.358380	2
203900	37.431632	0
204100	37.504957	4
204300	37.578353	3
204500	37.651822	6
204700	37.725361	1
204900	37.798973	1
205100	37.872656	3
205300	37.946411	186
205500	38.020238	5201
205700	38.094137	7
205900	38.168107	2
206100	38.242149	9
206300	38.316263	3
206500	38.390449	4
206700	38.464706	4
206900	38.539035	4
207100	38.613436	1
207300	38.687908	4
207500	38.762453	0
207700	38.837069	6
207900	38.911756	464
208100	38.986516	155513
