# Binning: 200 channels
# Deadtime Correction: on
Channel	m/z	Intensity
100	0.000242	0
300	0.000468	0
500	0.000767	0
700	0.001140	0
900	0.001586	0
1100	0.002106	0
1300	0.002699	0
1500	0.003366	0
1700	0.004107	0
1900	0.004921	0
2100	0.005809	0
2300	0.006770	0
2500	0.007805	1
2700	0.008913	0
2900	0.010095	0
3100	0.011351	0
3300	0.012680	0
3500	0.014083	0
3700	0.015559	0
3900	0.017109	0
4100	0.018732	0
4300	0.020429	0
4500	0.022200	0
4700	0.024044	0
4900	0.025962	0
5100	0.027953	0
5300	0.030018	0
5500	0.032156	0
5700	0.034368	0
5900	0.036654	0
6100	0.039013	0
6300	0.041445	0
6500	0.043952	0
6700	0.046531	0
6900	0.049185	0
7100	0.051912	0
7300	0.054712	0
7500	0.057586	0
7700	0.060534	0
7900	0.063555	0
8100	0.066650	0
8300	0.069818	0
8500	0.073060	0
8700	0.076376	0
8900	0.079765	0
9100	0.083228	0
9300	0.086764	0
9500	0.090374	0
9700	0.094057	0
9900	0.097814	0
10100	0.101644	0
10300	0.105548	0
10500	0.109526	0
10700	0.113577	0
10900	0.117702	0
11100	0.121900	0
11300	0.126172	0
11500	0.130518	0
11700	0.134937	0
11900	0.139429	0
12100	0.143995	0
12300	0.148635	0
12500	0.153349	0
12700	0.158135	0
12900	0.162996	0
13100	0.167930	0
13300	0.172938	0
13500	0.178019	0
13700	0.183173	0
13900	0.188402	0
14100	0.193704	0
14300	0.199079	0
14500	0.204528	0
14700	0.210051	0
14900	0.215647	0
15100	0.221316	0
15300	0.227060	0
15500	0.232877	0
15700	0.238767	0
15900	0.244731	0
16100	0.250769	0
16300	0.256880	0
16500	0.263064	0
16700	0.269323	0
16900	0.275655	0
17100	0.282060	0
17300	0.288539	0
17500	0.295092	0
17700	0.301718	0
17900	0.308417	0
18100	0.315191	0
18300	0.322037	0
18500	0.328958	0
18700	0.335952	0
18900	0.343019	0
19100	0.350160	0
19300	0.357375	0
19500	0.364663	0
19700	0.372025	0
19900	0.379461	0
20100	0.386969	0
20300	0.394552	0
20500	0.402208	0
20700	0.409938	0
20900	0.417741	0
21100	0.425618	0
21300	0.433568	0
21500	0.441592	0
21700	0.449690	0
21900	0.457861	0
22100	0.466105	0
22300	0.474424	0
22500	0.482815	0
22700	0.491281	0
22900	0.499820	0
23100	0.508432	0
23300	0.517118	0
23500	0.525878	0
23700	0.534711	0
23900	0.543618	0
24100	0.552598	0
24300	0.561652	0
24500	0.570779	0
24700	0.579981	0
24900	0.589255	0
25100	0.598603	0
25300	0.608025	0
25500	0.617520	0
25700	0.627089	0
25900	0.636732	0
26100	0.646448	0
26300	0.656237	0
26500	0.666101	0
26700	0.676037	0
26900	0.686048	0
27100	0.696131	0
27300	0.706289	1
27500	0.716520	0
27700	0.726825	0
27900	0.737203	0
28100	0.747654	0
28300	0.758180	0
28500	0.768779	0
28700	0.779451	0
28900	0.790197	0
29100	0.801017	0
29300	0.811910	0
29500	0.822876	0
29700	0.833917	0
29900	0.845031	0
30100	0.856218	0
30300	0.867479	0
30500	0.878813	0
30700	0.890222	0
30900	0.901703	0
31100	0.913259	0
31300	0.924887	0
31500	0.936590	0
31700	0.948366	0
31900	0.960215	0
32100	0.972138	0
32300	0.984135	0
32500	0.996205	0
32700	1.008349	8921
32900	1.020567	3
33100	1.032857	0
33300	1.045222	2
33500	1.057660	0
33700	1.070172	0
33900	1.082757	0
34100	1.095416	0
34300	1.108148	1
34500	1.120954	0
34700	1.133834	0
34900	1.146787	0
35100	1.159813	0
35300	1.172914	0
35500	1.186087	0
35700	1.199335	0
35900	1.212656	0
36100	1.226050	0
36300	1.239518	0
36500	1.253060	0
36700	1.266675	0
36900	1.280364	0
37100	1.294126	0
37300	1.307962	0
37500	1.321872	0
37700	1.335855	0
37900	1.349911	0
38100	1.364041	0
38300	1.378245	0
38500	1.392522	0
38700	1.406873	0
38900	1.421298	0
39100	1.435796	0
39300	1.450367	0
39500	1.465013	0
39700	1.479731	0
39900	1.494524	0
40100	1.509390	0
40300	1.524329	0
40500	1.539342	0
40700	1.554429	0
40900	1.569589	0
41100	1.584823	0
41300	1.600130	0
41500	1.615511	0
41700	1.630965	0
41900	1.646493	0
42100	1.662095	0
42300	1.677770	0
42500	1.693519	0
42700	1.709341	0
42900	1.725237	0
43100	1.741206	0
43300	1.757249	0
43500	1.773366	0
43700	1.789556	0
43900	1.805819	0
44100	1.822157	0
44300	1.838568	0
44500	1.855052	0
44700	1.871610	0
44900	1.888242	0
45100	1.904947	0
45300	1.921725	0
45500	1.938578	0
45700	1.955503	0
45900	1.972503	0
46100	1.989576	0
46300	2.006722	440
46500	2.023942	47
46700	2.041236	0
46900	2.058603	0
47100	2.076044	0
47300	2.093558	0
47500	2.111146	0
47700	2.128808	0
47900	2.146543	0
48100	2.164352	0
48300	2.182234	0
48500	2.200190	0
48700	2.218219	0
48900	2.236322	0
49100	2.254498	0
49300	2.272749	0
49500	2.291072	0
49700	2.309469	0
49900	2.327940	0
50100	2.346484	1
50300	2.365102	0
50500	2.383794	0
50700	2.402559	0
50900	2.421398	0
51100	2.440310	0
51300	2.459295	0
51500	2.478355	0
51700	2.497488	0
51900	2.516694	0
52100	2.535974	0
52300	2.555328	0
52500	2.574755	0
52700	2.594256	0
52900	2.613830	0
53100	2.633478	0
53300	2.653199	0
53500	2.672994	0
53700	2.692863	0
53900	2.712805	0
54100	2.732821	0
54300	2.752910	0
54500	2.773073	0
54700	2.793310	0
54900	2.813620	0
55100	2.834003	0
55300	2.854460	0
55500	2.874991	0
55700	2.895595	0
55900	2.916273	0
56100	2.937025	0
56300	2.957850	0
56500	2.978748	0
56700	2.999720	0
56900	3.020766	96
57100	3.041885	1
57300	3.063078	0
57500	3.084344	0
57700	3.105684	0
57900	3.127098	0
58100	3.148585	0
58300	3.170146	0
58500	3.191780	0
58700	3.213488	0
58900	3.235269	0
59100	3.257124	0
59300	3.279053	0
59500	3.301055	0
59700	3.323131	0
59900	3.345280	0
60100	3.367503	0
60300	3.389799	0
60500	3.412169	0
60700	3.434612	0
60900	3.457129	0
61100	3.479720	0
61300	3.502384	0
61500	3.525122	0
61700	3.547934	0
61900	3.570818	0
62100	3.593777	0
62300	3.616809	0
62500	3.639915	0
62700	3.663094	0
62900	3.686347	0
63100	3.709673	0
63300	3.733073	0
63500	3.756546	0
63700	3.780093	0
63900	3.803714	0
64100	3.827408	0
64300	3.851176	0
64500	3.875017	0
64700	3.898932	0
64900	3.922921	0
65100	3.946983	0
65300	3.971118	0
65500	3.995328	0
65700	4.019610	0
65900	4.043967	0
66100	4.068397	0
66300	4.092900	0
66500	4.117477	0
66700	4.142128	0
66900	4.166852	0
67100	4.191650	0
67300	4.216521	0
67500	4.241466	0
67700	4.266484	0
67900	4.291576	0
68100	4.316742	0
68300	4.341981	0
68500	4.367294	0
68700	4.392680	0
68900	4.418140	0
69100	4.443673	0
69300	4.469280	0
69500	4.494961	0
69700	4.520715	0
69900	4.546543	0
70100	4.572444	0
70300	4.598419	0
70500	4.624467	0
70700	4.650589	0
70900	4.676785	0
71100	4.703054	0
71300	4.729396	0
71500	4.755813	0
71700	4.782303	0
71900	4.808866	0
72100	4.835503	0
72300	4.862213	0
72500	4.888998	0
72700	4.915855	0
72900	4.942786	0
73100	4.969791	0
73300	4.996870	0
73500	5.024022	0
73700	5.051247	0
73900	5.078546	0
74100	5.105919	0
74300	5.133365	0
74500	5.160885	0
74700	5.188478	0
74900	5.216145	0
75100	5.243886	0
75300	5.271700	0
75500	5.299587	0
75700	5.327549	0
75900	5.355583	0
76100	5.383692	0
76300	5.411874	0
76500	5.440129	0
76700	5.468458	0
76900	5.496861	0
77100	5.525337	0
77300	5.553887	0
77500	5.582510	0
77700	5.611207	0
77900	5.639978	0
78100	5.668822	0
78300	5.697739	0
78500	5.726730	0
78700	5.755795	0
78900	5.784934	1
79100	5.814145	0
79300	5.843431	0
79500	5.872790	0
79700	5.902222	0
79900	5.931729	0
80100	5.961308	0
80300	5.990962	0
80500	6.020689	6918
80700	6.050489	34
80900	6.080363	8
81100	6.110311	1
81300	6.140332	4
81500	6.170427	0
81700	6.200595	0
81900	6.230837	0
82100	6.261152	1
82300	6.291541	0
82500	6.322004	0
82700	6.352540	1
82900	6.383150	0
83100	6.413833	0
83300	6.444590	0
83500	6.475420	0
83700	6.506324	0
83900	6.537302	0
84100	6.568353	0
84300	6.599477	2
84500	6.630676	0
84700	6.661948	3
84900	6.693293	0
85100	6.724712	0
85300	6.756204	0
85500	6.787771	0
85700	6.819410	0
85900	6.851123	0
86100	6.882910	0
86300	6.914771	0
86500	6.946705	3
86700	6.978712	4
86900	7.010793	81154
87100	7.042948	1627
87300	7.075176	126
87500	7.107478	47
87700	7.139853	34
87900	7.172302	11
88100	7.204825	10
88300	7.237421	7
88500	7.270090	6
88700	7.302834	0
88900	7.335650	1
89100	7.368541	1
89300	7.401505	0
89500	7.434542	2
89700	7.467653	0
89900	7.500838	0
90100	7.534096	1
90300	7.567428	0
90500	7.600833	1
90700	7.634312	4
90900	7.667865	2
91100	7.701491	0
91300	7.735190	1
91500	7.768964	1
91700	7.802810	0
91900	7.836731	2
92100	7.870724	0
92300	7.904792	0
92500	7.938933	1
92700	7.973148	1
92900	8.007436	68
93100	8.041798	2
93300	8.076233	0
93500	8.110742	0
93700	8.145324	2
93900	8.179980	1
94100	8.214710	0
94300	8.249513	0
94500	8.284390	0
94700	8.319340	1
94900	8.354364	0
95100	8.389461	0
95300	8.424632	0
95500	8.459877	0
95700	8.495195	0
95900	8.530587	0
96100	8.566052	0
96300	8.601591	0
96500	8.637203	0
96700	8.672889	0
96900	8.708649	0
97100	8.744482	0
97300	8.780389	0
97500	8.816369	0
97700	8.852423	0
97900	8.888550	0
98100	8.924751	0
98300	8.961026	0
98500	8.997374	0
98700	9.033795	4
98900	9.070291	0
99100	9.106859	0
99300	9.143502	0
99500	9.180218	0
99700	9.217007	0
99900	9.253870	0
100100	9.290807	0
100300	9.327817	0
100500	9.364901	0
100700	9.402059	0
100900	9.439289	0
101100	9.476594	0
101300	9.513972	0
101500	9.551424	0
101700	9.588949	0
101900	9.626548	0
102100	9.664220	0
102300	9.701966	0
102500	9.739786	0
102700	9.777679	1
102900	9.815645	0
103100	9.853685	0
103300	9.891799	0
103500	9.929987	0
103700	9.968247	0
103900	10.006582	226
104100	10.044990	0
104300	10.083472	0
104500	10.122027	0
104700	10.160656	0
104900	10.199358	0
105100	10.238134	0
105300	10.276983	0
105500	10.315906	0
105700	10.354903	0
105900	10.393973	0
106100	10.433117	0
106300	10.472334	0
106500	10.511625	0
106700	10.550990	0
106900	10.590428	0
107100	10.629939	0
107300	10.669524	0
107500	10.709183	0
107700	10.748915	0
107900	10.788721	0
108100	10.828601	0
108300	10.868554	0
108500	10.908580	0
108700	10.948680	0
108900	10.988854	528
109100	11.029101	286
109300	11.069422	0
109500	11.109817	0
109700	11.150285	0
109900	11.190826	0
110100	11.231441	0
110300	11.272130	0
110500	11.312892	0
110700	11.353728	0
110900	11.394638	0
111100	11.435621	0
111300	11.476677	0
111500	11.517807	0
111700	11.559011	0
111900	11.600288	0
112100	11.641639	0
112300	11.683063	0
112500	11.724561	0
112700	11.766133	0
112900	11.807778	0
113100	11.849497	0
113300	11.891289	0
113500	11.933155	0
113700	11.975094	17
113900	12.017107	1161
114100	12.059193	0
114300	12.101354	0
114500	12.143587	0
114700	12.185894	0
114900	12.228275	0
115100	12.270730	0
115300	12.313258	0
115500	12.355859	0
115700	12.398534	0
115900	12.441283	0
116100	12.484105	0
116300	12.527001	0
116500	12.569970	0
116700	12.613013	0
116900	12.656130	0
117100	12.699320	0
117300	12.742583	0
117500	12.785920	0
117700	12.829331	0
117900	12.872815	1
118100	12.916373	0
118300	12.960005	0
118500	13.003710	1581
118700	13.047489	11
118900	13.091341	0
119100	13.135266	0
119300	13.179266	0
119500	13.223339	0
119700	13.267485	0
119900	13.311705	0
120100	13.355999	0
120300	13.400366	0
120500	13.444807	0
120700	13.489321	0
120900	13.533909	0
121100	13.578570	0
121300	13.623305	0
121500	13.668114	0
121700	13.712996	0
121900	13.757952	0
122100	13.802981	0
122300	13.848084	0
122500	13.893260	0
122700	13.938510	1
122900	13.983834	19
123100	14.029231	4438
123300	14.074702	0
123500	14.120246	1
123700	14.165864	1
123900	14.211555	1
124100	14.257320	0
124300	14.303159	0
124500	14.349071	0
124700	14.395057	0
124900	14.441116	0
125100	14.487249	0
125300	14.533455	0
125500	14.579735	0
125700	14.626089	0
125900	14.672516	0
126100	14.719016	0
126300	14.765591	0
126500	14.812238	1
126700	14.858960	0
126900	14.905755	0
127100	14.952623	2
127300	14.999565	14899
127500	15.046581	14526
127700	15.093670	18
127900	15.140833	6
128100	15.188069	3
128300	15.235379	3
128500	15.282763	2
128700	15.330220	2
128900	15.377751	1
129100	15.425355	0
129300	15.473033	0
129500	15.520784	0
129700	15.568609	0
129900	15.616507	0
130100	15.664479	1
130300	15.712525	0
130500	15.760644	0
130700	15.808837	0
130900	15.857103	0
131100	15.905443	0
131300	15.953857	0
131500	16.002344	432
131700	16.050904	427
131900	16.099539	1
132100	16.148246	1
132300	16.197028	0
132500	16.245882	0
132700	16.294811	0
132900	16.343813	0
133100	16.392889	0
133300	16.442038	0
133500	16.491260	0
133700	16.540557	0
133900	16.589927	0
134100	16.639370	0
134300	16.688887	0
134500	16.738478	0
134700	16.788142	0
134900	16.837880	0
135100	16.887691	0
135300	16.937576	0
135500	16.987534	161
135700	17.037566	800
135900	17.087672	0
136100	17.137851	0
136300	17.188104	0
136500	17.238430	0
136700	17.288830	0
136900	17.339303	0
137100	17.389850	0
137300	17.440471	0
137500	17.491165	0
137700	17.541932	0
137900	17.592774	0
138100	17.643689	0
138300	17.694677	0
138500	17.745739	0
138700	17.796874	0
138900	17.848084	0
139100	17.899366	0
139300	17.950723	3
139500	18.002152	385
139700	18.053656	10750
139900	18.105233	23
140100	18.156883	9
140300	18.208607	5
140500	18.260405	4
140700	18.312276	3
140900	18.364221	1
141100	18.416239	0
141300	18.468331	1
141500	18.520497	0
141700	18.572736	3
141900	18.625049	2
142100	18.677435	1
142300	18.729895	1
142500	18.782428	1
142700	18.835035	0
142900	18.887715	1
143100	18.940469	2
143300	18.993297	2682
143500	19.046198	484
143700	19.099173	1
143900	19.152221	1
144100	19.205343	0
144300	19.258539	0
144500	19.311808	1
144700	19.365150	0
144900	19.418567	0
145100	19.472056	0
145300	19.525620	0
145500	19.579257	0
145700	19.632967	1
145900	19.686751	0
146100	19.740609	0
146300	19.794540	0
146500	19.848545	0
146700	19.902623	1
146900	19.956775	119
147100	20.011000	13
147300	20.065299	0
147500	20.119672	0
147700	20.174118	0
147900	20.228638	1
148100	20.283231	1
148300	20.337898	1
148500	20.392638	2
148700	20.447452	0
148900	20.502340	0
149100	20.557301	0
149300	20.612336	0
149500	20.667444	0
149700	20.722626	2
149900	20.777881	0
150100	20.833210	1
150300	20.888613	4
150500	20.944089	1
150700	20.999639	14
150900	21.055262	10
151100	21.110959	0
151300	21.166729	0
151500	21.222573	2
151700	21.278491	0
151900	21.334482	1
152100	21.390546	1
152300	21.446685	0
152500	21.502897	1
152700	21.559182	2
152900	21.615541	0
153100	21.671973	0
153300	21.728479	0
153500	21.785059	0
153700	21.841712	1
153900	21.898439	0
154100	21.955240	7
154300	22.012114	16
154500	22.069061	0
154700	22.126082	0
154900	22.183177	2
155100	22.240345	1
155300	22.297587	1
155500	22.354902	13
155700	22.412291	6
155900	22.469754	2
156100	22.527290	0
156300	22.584899	0
156500	22.642582	0
156700	22.700339	1
156900	22.758170	4
157100	22.816074	6
157300	22.874051	225
157500	22.932102	431
157700	22.990227	3809337
157900	23.048425	28192
158100	23.106697	1200
158300	23.165042	1732
158500	23.223461	1663
158700	23.281953	1202
158900	23.340519	924
159100	23.399159	683
159300	23.457872	540
159500	23.516659	387
159700	23.575519	318
159900	23.634453	239
160100	23.693461	198
160300	23.752542	167
160500	23.811696	141
160700	23.870924	102
160900	23.930226	82
161100	23.989601	5861
161300	24.049050	279
161500	24.108573	54
161700	24.168169	40
161900	24.227838	51
162100	24.287581	34
162300	24.347398	28
162500	24.407288	42
162700	24.467252	27
162900	24.527290	20
163100	24.587401	16
163300	24.647585	25
163500	24.707843	11
163700	24.768175	11
163900	24.828580	14
164100	24.889059	10
164300	24.949612	20
164500	25.010238	2191
164700	25.070937	26
164900	25.131710	11
165100	25.192557	7
165300	25.253477	4
165500	25.314471	4
165700	25.375538	2
165900	25.436679	8
166100	25.497894	7
166300	25.559182	8
166500	25.620544	9
166700	25.681979	8
166900	25.743488	10
167100	25.805070	3
167300	25.866726	9
167500	25.928456	53
167700	25.990259	10139
167900	26.052135	106
168100	26.114085	10
168300	26.176109	0
168500	26.238207	4
168700	26.300378	5
168900	26.362622	3
169100	26.424940	3
169300	26.487332	2
169500	26.549797	3
169700	26.612336	5
169900	26.674948	4
170100	26.737634	4
170300	26.800394	2
170500	26.863227	3
170700	26.926133	128
170900	26.989113	25896
171100	27.052167	109932
171300	27.115294	95
171500	27.178495	30
171700	27.241770	13
171900	27.305118	15
172100	27.368540	10
172300	27.432035	18
172500	27.495603	11
172700	27.559246	9
172900	27.622962	5
173100	27.686751	9
173300	27.750614	14
173500	27.814551	3
173700	27.878561	13
173900	27.942645	4855
174100	28.006802	39150
174300	28.071033	181
174500	28.135337	23
174700	28.199715	22
174900	28.264167	19
175100	28.328692	11
175300	28.393291	12
175500	28.457963	10
175700	28.522709	9
175900	28.587528	10
176100	28.652421	4
176300	28.717388	4
176500	28.782428	5
176700	28.847542	16
176900	28.912729	49
177100	28.977990	24212
177300	29.043324	165791
177500	29.108732	360
177700	29.174214	81
177900	29.239769	44
178100	29.305398	33
178300	29.371100	35
178500	29.436876	11
178700	29.502725	14
178900	29.568648	13
179100	29.634645	13
179300	29.700715	20
179500	29.766858	27
179700	29.833076	19
179900	29.899366	17
180100	29.965731	1310
180300	30.032169	14694
180500	30.098680	63
180700	30.165265	14
180900	30.231924	12
181100	30.298656	14
181300	30.365462	9
181500	30.432341	4
181700	30.499294	5
181900	30.566321	7
182100	30.633421	14
182300	30.700595	2
182500	30.767842	4
182700	30.835163	4
182900	30.902557	11
183100	30.970025	1164
183300	31.037566	49746
183500	31.105181	65
183700	31.172870	47
183900	31.240632	85
184100	31.308468	16
184300	31.376377	8
184500	31.444360	8
184700	31.512417	25
184900	31.580547	32
185100	31.648750	9
185300	31.717028	8
185500	31.785378	6
185700	31.853803	8
185900	31.922300	3
186100	31.990872	641
186300	32.059517	450
186500	32.128236	3
186700	32.197028	8
186900	32.265893	5
187100	32.334833	4
187300	32.403846	3
187500	32.472932	4
187700	32.542092	1
187900	32.611326	1
188100	32.680633	3
188300	32.750014	1
188500	32.819468	0
188700	32.888996	1
188900	32.958597	12
189100	33.028272	426
189300	33.098021	5
189500	33.167843	2
189700	33.237739	3
189900	33.307708	9
190100	33.377751	23
190300	33.447867	26
190500	33.518057	4
190700	33.588321	4
190900	33.658658	1
191100	33.729068	3
191300	33.799553	4
191500	33.870111	2
191700	33.940742	2
191900	34.011447	119
192100	34.082225	1
192300	34.153078	1
192500	34.224003	0
192700	34.295002	6
192900	34.366075	2
193100	34.437222	2
193300	34.508442	2
193500	34.579735	4
193700	34.651102	2
193900	34.722543	2
194100	34.794057	5
194300	34.865645	2
194500	34.937306	46
194700	35.009041	190
194900	35.080850	14
195100	35.152732	2
195300	35.224688	4
195500	35.296717	2
195700	35.368820	2
195900	35.440996	0
196100	35.513246	2
196300	35.585569	4
196500	35.657966	3
196700	35.730437	3
196900	35.802981	3
197100	35.875599	2
197300	35.948290	34
197500	36.021055	276
197700	36.093894	5
197900	36.166806	2
198100	36.239791	0
198300	36.312851	4
198500	36.385983	0
198700	36.459190	1
198900	36.532470	3
199100	36.605823	4
199300	36.679250	2
199500	36.752751	2
199700	36.826325	3
199900	36.899973	29
200100	36.973694	1540
200300	37.047489	701
200500	37.121357	2
200700	37.195299	7
200900	37.269315	2
201100	37.343404	3
201300	37.417567	3
201500	37.491803	4
201700	37.566113	4
201900	37.640496	4
202100	37.714953	3
202300	37.789484	3
202500	37.864088	3
202700	37.938766	108
202900	38.013517	4916
203100	38.088342	11
203300	38.163240	20
203500	38.238212	8
203700	38.313258	4
203900	38.388377	6
204100	38.463570	6
204300	38.538836	4
204500	38.614176	6
204700	38.689589	5
204900	38.765076	7
205100	38.840637	335
205300	38.916271	3890
205500	38.991978	3433199
205700	39.067760	2630
205900	39.143614	3923
206100	39.219543	4920
206300	39.295545	4726
206500	39.371620	3667
206700	39.447769	2759
