# Binning: 200 channels
# Deadtime Correction: on
Channel	m/z	Intensity
100	0.000305	0
300	0.000554	0
500	0.000876	0
700	0.001271	0
900	0.001741	0
1100	0.002283	0
1300	0.002900	0
1500	0.003590	0
1700	0.004353	0
1900	0.005190	0
2100	0.006101	0
2300	0.007085	0
2500	0.008142	0
2700	0.009274	0
2900	0.010478	0
3100	0.011757	0
3300	0.013108	0
3500	0.014534	0
3700	0.016033	0
3900	0.017605	0
4100	0.019251	0
4300	0.020971	0
4500	0.022764	0
4700	0.024631	0
4900	0.026571	0
5100	0.028585	0
5300	0.030672	0
5500	0.032833	0
5700	0.035067	0
5900	0.037375	0
6100	0.039757	0
6300	0.042212	0
6500	0.044741	0
6700	0.047343	0
6900	0.050019	0
7100	0.052768	0
7300	0.055591	0
7500	0.058487	0
7700	0.061457	0
7900	0.064501	0
8100	0.067618	0
8300	0.070808	0
8500	0.074073	0
8700	0.077410	0
8900	0.080822	1
9100	0.084306	0
9300	0.087865	0
9500	0.091497	0
9700	0.095202	0
9900	0.098981	0
10100	0.102834	0
10300	0.106760	0
10500	0.110759	0
10700	0.114833	0
10900	0.118979	0
11100	0.123200	0
11300	0.127494	0
11500	0.131861	0
11700	0.136302	0
11900	0.140816	0
12100	0.145404	0
12300	0.150066	0
12500	0.154801	0
12700	0.159610	0
12900	0.164492	0
13100	0.169448	0
13300	0.174477	0
13500	0.179580	0
13700	0.184757	0
13900	0.190007	0
14100	0.195330	0
14300	0.200728	0
14500	0.206198	0
14700	0.211742	0
14900	0.217360	0
15100	0.223052	0
15300	0.228816	0
15500	0.234655	0
15700	0.240567	0
15900	0.246552	0
16100	0.252611	0
16300	0.258744	0
16500	0.264950	0
16700	0.271230	0
16900	0.277583	0
17100	0.284010	0
17300	0.290510	0
17500	0.297084	0
17700	0.303732	0
17900	0.310453	0
18100	0.317247	0
18300	0.324116	0
18500	0.331057	0
18700	0.338072	0
18900	0.345161	0
19100	0.352324	0
19300	0.359559	0
19500	0.366869	0
19700	0.374252	0
19900	0.381708	0
20100	0.389238	0
20300	0.396842	0
20500	0.404519	0
20700	0.412270	0
20900	0.420094	0
21100	0.427992	0
21300	0.435964	0
21500	0.444008	0
21700	0.452127	0
21900	0.460319	0
22100	0.468585	0
22300	0.476924	0
22500	0.485336	0
22700	0.493823	0
22900	0.502382	0
23100	0.511016	0
23300	0.519723	0
23500	0.528503	0
23700	0.537357	0
23900	0.546285	0
24100	0.555286	0
24300	0.564360	0
24500	0.573509	0
24700	0.582730	0
24900	0.592026	0
25100	0.601394	0
25300	0.610837	0
25500	0.620353	0
25700	0.629942	0
25900	0.639605	0
26100	0.649342	0
26300	0.659152	0
26500	0.669036	0
26700	0.678993	0
26900	0.689024	0
27100	0.699128	0
27300	0.709306	0
27500	0.719558	0
27700	0.729883	0
27900	0.740281	0
28100	0.750753	0
28300	0.761299	0
28500	0.771918	0
28700	0.782611	0
28900	0.793377	0
29100	0.804217	0
29300	0.815130	0
29500	0.826117	0
29700	0.837178	0
29900	0.848312	0
30100	0.859520	0
30300	0.870801	0
30500	0.882155	0
30700	0.893584	0
30900	0.905086	0
31100	0.916661	0
31300	0.928310	0
31500	0.940032	0
31700	0.951828	0
31900	0.963698	0
32100	0.975641	0
32300	0.987658	1
32500	0.999748	8
32700	1.011912	1510
32900	1.024149	0
33100	1.036460	0
33300	1.048844	0
33500	1.061302	0
33700	1.073834	0
33900	1.086439	0
34100	1.099117	0
34300	1.111870	0
34500	1.124695	0
34700	1.137594	0
34900	1.150567	0
35100	1.163614	0
35300	1.176734	0
35500	1.189927	0
35700	1.203194	0
35900	1.216535	0
36100	1.229949	0
36300	1.243436	0
36500	1.256998	0
36700	1.270632	0
36900	1.284341	0
37100	1.298123	0
37300	1.311978	0
37500	1.325907	0
37700	1.339910	0
37900	1.353986	0
38100	1.368135	0
38300	1.382358	0
38500	1.396655	0
38700	1.411025	0
38900	1.425469	0
39100	1.439987	0
39300	1.454578	0
39500	1.469242	0
39700	1.483980	0
39900	1.498792	0
40100	1.513677	0
40300	1.528636	0
40500	1.543668	0
40700	1.558774	0
40900	1.573953	0
41100	1.589206	0
41300	1.604532	0
41500	1.619932	0
41700	1.635406	0
41900	1.650953	0
42100	1.666573	0
42300	1.682268	0
42500	1.698035	0
42700	1.713877	0
42900	1.729792	0
43100	1.745780	0
43300	1.761842	0
43500	1.777977	0
43700	1.794186	0
43900	1.810469	0
44100	1.826825	0
44300	1.843255	0
44500	1.859758	0
44700	1.876335	0
44900	1.892985	1
45100	1.909709	0
45300	1.926507	0
45500	1.943378	0
45700	1.960322	0
45900	1.977340	0
46100	1.994432	0
46300	2.011597	112
46500	2.028836	0
46700	2.046148	0
46900	2.063534	0
47100	2.080993	0
47300	2.098526	0
47500	2.116133	0
47700	2.133813	0
47900	2.151566	0
48100	2.169394	0
48300	2.187294	0
48500	2.205269	0
48700	2.223316	0
48900	2.241438	0
49100	2.259633	0
49300	2.277901	0
49500	2.296243	0
49700	2.314659	0
49900	2.333148	0
50100	2.351710	0
50300	2.370347	0
50500	2.389056	0
50700	2.407840	0
50900	2.426697	0
51100	2.445627	0
51300	2.464631	0
51500	2.483708	0
51700	2.502859	0
51900	2.522084	0
52100	2.541382	0
52300	2.560754	0
52500	2.580199	0
52700	2.599718	0
52900	2.619310	0
53100	2.638976	0
53300	2.658716	0
53500	2.678529	0
53700	2.698415	0
53900	2.718375	0
54100	2.738409	0
54300	2.758516	0
54500	2.778697	0
54700	2.798951	0
54900	2.819279	0
55100	2.839681	0
55300	2.860156	0
55500	2.880704	0
55700	2.901326	0
55900	2.922022	0
56100	2.942791	0
56300	2.963634	0
56500	2.984550	0
56700	3.005540	0
56900	3.026603	31
57100	3.047740	0
57300	3.068951	0
57500	3.090235	0
57700	3.111592	0
57900	3.133023	0
58100	3.154528	0
58300	3.176106	0
58500	3.197758	0
58700	3.219483	0
58900	3.241282	0
59100	3.263155	0
59300	3.285101	0
59500	3.307120	0
59700	3.329213	0
59900	3.351380	0
60100	3.373620	0
60300	3.395934	0
60500	3.418321	0
60700	3.440782	0
60900	3.463316	0
61100	3.485924	0
61300	3.508606	0
61500	3.531361	0
61700	3.554189	0
61900	3.577092	0
62100	3.600067	0
62300	3.623116	0
62500	3.646239	0
62700	3.669436	0
62900	3.692706	0
63100	3.716049	0
63300	3.739466	0
63500	3.762956	0
63700	3.786521	0
63900	3.810158	0
64100	3.833869	0
64300	3.857654	0
64500	3.881512	0
64700	3.905444	0
64900	3.929450	0
65100	3.953529	0
65300	3.977681	0
65500	4.001907	0
65700	4.026207	0
65900	4.050580	0
66100	4.075027	0
66300	4.099547	0
66500	4.124141	0
66700	4.148808	0
66900	4.173549	0
67100	4.198363	0
67300	4.223251	0
67500	4.248213	0
67700	4.273248	0
67900	4.298357	0
68100	4.323539	0
68300	4.348795	0
68500	4.374124	0
68700	4.399527	0
68900	4.425003	0
69100	4.450553	0
69300	4.476177	0
69500	4.501874	0
69700	4.527644	0
69900	4.553488	0
70100	4.579406	0
70300	4.605397	0
70500	4.631462	0
70700	4.657601	0
70900	4.683812	0
71100	4.710098	0
71300	4.736457	0
71500	4.762889	0
71700	4.789396	0
71900	4.815975	0
72100	4.842628	0
72300	4.869355	0
72500	4.896156	0
72700	4.923029	0
72900	4.949977	0
73100	4.976998	0
73300	5.004092	0
73500	5.031260	0
73700	5.058502	0
73900	5.085817	0
74100	5.113206	0
74300	5.140668	0
74500	5.168204	0
74700	5.195813	0
74900	5.223496	0
75100	5.251253	0
75300	5.279083	0
75500	5.306986	0
75700	5.334963	0
75900	5.363014	0
76100	5.391138	0
76300	5.419336	0
76500	5.447607	0
76700	5.475952	0
76900	5.504371	0
77100	5.532863	0
77300	5.561428	0
77500	5.590067	0
77700	5.618780	0
77900	5.647566	0
78100	5.676426	0
78300	5.705359	0
78500	5.734366	0
78700	5.763446	0
78900	5.792600	0
79100	5.821828	0
79300	5.851129	0
79500	5.880503	0
79700	5.909951	0
79900	5.939473	0
80100	5.969068	0
80300	5.998737	2
80500	6.028479	11
80700	6.058295	0
80900	6.088185	0
81100	6.118148	0
81300	6.148184	0
81500	6.178294	0
81700	6.208478	0
81900	6.238735	0
82100	6.269066	0
82300	6.299470	0
82500	6.329948	0
82700	6.360499	0
82900	6.391124	0
83100	6.421823	0
83300	6.452595	0
83500	6.483440	0
83700	6.514360	0
83900	6.545352	0
84100	6.576419	0
84300	6.607558	0
84500	6.638772	0
84700	6.670059	0
84900	6.701419	0
85100	6.732853	0
85300	6.764361	0
85500	6.795942	0
85700	6.827596	0
85900	6.859324	0
86100	6.891126	0
86300	6.923002	0
86500	6.954950	0
86700	6.986973	0
86900	7.019069	167
87100	7.051238	3
87300	7.083481	0
87500	7.115798	0
87700	7.148188	0
87900	7.180652	0
88100	7.213189	0
88300	7.245800	0
88500	7.278484	0
88700	7.311242	0
88900	7.344073	0
89100	7.376978	0
89300	7.409957	0
89500	7.443009	0
89700	7.476135	0
89900	7.509334	0
90100	7.542607	0
90300	7.575953	0
90500	7.609373	0
90700	7.642866	0
90900	7.676433	1
91100	7.710074	0
91300	7.743788	0
91500	7.777575	0
91700	7.811437	0
91900	7.845371	0
92100	7.879380	0
92300	7.913461	0
92500	7.947617	1
92700	7.981846	0
92900	8.016148	0
93100	8.050524	0
93300	8.084974	0
93500	8.119497	0
93700	8.154093	0
93900	8.188764	0
94100	8.223507	0
94300	8.258325	0
94500	8.293216	0
94700	8.328180	0
94900	8.363218	0
95100	8.398330	0
95300	8.433515	0
95500	8.468773	0
95700	8.504105	0
95900	8.539511	0
96100	8.574990	0
96300	8.610543	0
96500	8.646170	0
96700	8.681870	0
96900	8.717643	0
97100	8.753490	0
97300	8.789411	0
97500	8.825405	0
97700	8.861472	0
97900	8.897614	0
98100	8.933828	0
98300	8.970117	0
98500	9.006479	0
98700	9.042914	0
98900	9.079423	0
99100	9.116006	0
99300	9.152662	0
99500	9.189391	0
99700	9.226194	0
99900	9.263071	0
100100	9.300021	0
100300	9.337045	0
100500	9.374143	0
100700	9.411314	0
100900	9.448558	0
101100	9.485876	0
101300	9.523268	0
101500	9.560733	0
101700	9.598271	0
101900	9.635884	0
102100	9.673569	0
102300	9.711329	0
102500	9.749162	0
102700	9.787068	0
102900	9.825048	0
103100	9.863102	0
103300	9.901229	0
103500	9.939429	0
103700	9.977704	0
103900	10.016051	1
104100	10.054473	0
104300	10.092967	0
104500	10.131536	0
104700	10.170178	0
104900	10.208893	0
105100	10.247682	0
105300	10.286545	0
105500	10.325481	0
105700	10.364491	0
105900	10.403574	0
106100	10.442731	0
106300	10.481961	0
106500	10.521265	0
106700	10.560642	0
106900	10.600093	0
107100	10.639618	0
107300	10.679216	0
107500	10.718888	0
107700	10.758633	0
107900	10.798452	0
108100	10.838344	0
108300	10.878310	0
108500	10.918349	0
108700	10.958462	0
108900	10.998649	1
109100	11.038909	0
109300	11.079242	0
109500	11.119650	0
109700	11.160130	0
109900	11.200684	0
110100	11.241312	0
110300	11.282014	0
110500	11.322789	0
110700	11.363637	0
110900	11.404559	0
111100	11.445555	0
111300	11.486624	0
111500	11.527766	0
111700	11.568983	0
111900	11.610272	0
112100	11.651636	0
112300	11.693072	0
112500	11.734583	0
112700	11.776167	0
112900	11.817824	0
113100	11.859555	0
113300	11.901360	0
113500	11.943238	0
113700	11.985190	1247
113900	12.027215	17
114100	12.069314	1
114300	12.111486	0
114500	12.153732	0
114700	12.196052	0
114900	12.238445	0
115100	12.280911	0
115300	12.323451	0
115500	12.366065	0
115700	12.408752	0
115900	12.451513	0
116100	12.494347	0
116300	12.537255	0
116500	12.580237	1
116700	12.623292	0
116900	12.666420	0
117100	12.709622	0
117300	12.752898	0
117500	12.796247	0
117700	12.839670	0
117900	12.883166	0
118100	12.926736	0
118300	12.970379	0
118500	13.014096	763
118700	13.057887	0
118900	13.101751	0
119100	13.145688	0
119300	13.189699	0
119500	13.233784	1
119700	13.277942	0
119900	13.322174	0
120100	13.366479	0
120300	13.410858	0
120500	13.455311	0
120700	13.499837	0
120900	13.544436	0
121100	13.589109	0
121300	13.633856	0
121500	13.678676	1
121700	13.723570	0
121900	13.768537	0
122100	13.813578	0
122300	13.858692	0
122500	13.903880	0
122700	13.949142	1
122900	13.994477	769
123100	14.039885	134
123300	14.085368	0
123500	14.130923	0
123700	14.176552	0
123900	14.222255	0
124100	14.268032	0
124300	14.313881	0
124500	14.359805	0
124700	14.405802	0
124900	14.451872	0
125100	14.498017	0
125300	14.544234	0
125500	14.590525	0
125700	14.636890	0
125900	14.683328	0
126100	14.729840	0
126300	14.776426	0
126500	14.823085	0
126700	14.869817	0
126900	14.916623	0
127100	14.963503	0
127300	15.010456	2044
127500	15.057483	16
127700	15.104583	1
127900	15.151757	0
128100	15.199004	0
128300	15.246325	0
128500	15.293719	1
128700	15.341187	1
128900	15.388729	0
129100	15.436344	0
129300	15.484033	0
129500	15.531795	0
129700	15.579631	0
129900	15.627540	0
130100	15.675523	0
130300	15.723579	0
130500	15.771709	0
130700	15.819913	0
130900	15.868190	0
131100	15.916540	0
131300	15.964964	0
131500	16.013462	85
131700	16.062033	1
131900	16.110678	0
132100	16.159397	0
132300	16.208188	0
132500	16.257054	0
132700	16.305993	0
132900	16.355005	0
133100	16.404092	0
133300	16.453251	0
133500	16.502484	0
133700	16.551791	0
133900	16.601172	0
134100	16.650625	0
134300	16.700153	0
134500	16.749754	0
134700	16.799428	0
134900	16.849176	0
135100	16.898998	0
135300	16.948893	1
135500	16.998862	16
135700	17.048904	16
135900	17.099020	0
136100	17.149209	0
136300	17.199472	0
136500	17.249809	0
136700	17.300219	0
136900	17.350702	0
137100	17.401259	0
137300	17.451890	0
137500	17.502594	0
137700	17.553372	0
137900	17.604223	0
138100	17.655148	0
138300	17.706147	0
138500	17.757219	0
138700	17.808364	0
138900	17.859583	1
139100	17.910876	0
139300	17.962242	0
139500	18.013682	372
139700	18.065195	232
139900	18.116782	3
140100	18.168442	2
140300	18.220176	0
140500	18.271984	0
140700	18.323865	0
140900	18.375819	0
141100	18.427847	0
141300	18.479949	0
141500	18.532124	0
141700	18.584373	0
141900	18.636695	0
142100	18.689091	0
142300	18.741561	0
142500	18.794104	0
142700	18.846720	0
142900	18.899410	0
143100	18.952174	0
143300	19.005011	125
143500	19.057922	4
143700	19.110906	0
143900	19.163964	0
144100	19.217095	0
144300	19.270300	0
144500	19.323579	0
144700	19.376931	0
144900	19.430356	0
145100	19.483856	0
145300	19.537428	0
145500	19.591075	0
145700	19.644794	0
145900	19.698588	1
146100	19.752455	0
146300	19.806395	0
146500	19.860409	0
146700	19.914497	0
146900	19.968658	0
147100	20.022892	1
147300	20.077200	0
147500	20.131582	0
147700	20.186038	0
147900	20.240566	0
148100	20.295169	0
148300	20.349845	0
148500	20.404594	0
148700	20.459417	0
148900	20.514314	0
149100	20.569284	0
149300	20.624328	0
149500	20.679445	0
149700	20.734636	1
149900	20.789900	0
150100	20.845238	0
150300	20.900649	0
150500	20.956134	0
150700	21.011693	0
150900	21.067325	0
151100	21.123031	0
151300	21.178810	0
151500	21.234663	0
151700	21.290589	0
151900	21.346589	0
152100	21.402662	0
152300	21.458809	0
152500	21.515030	0
152700	21.571324	0
152900	21.627691	1
153100	21.684133	0
153300	21.740647	0
153500	21.797236	0
153700	21.853897	0
153900	21.910633	0
154100	21.967442	0
154300	22.024324	0
154500	22.081280	0
154700	22.138310	0
154900	22.195413	0
155100	22.252589	0
155300	22.309840	0
155500	22.367163	0
155700	22.424561	0
155900	22.482032	0
156100	22.539576	5
156300	22.597194	1
156500	22.654886	0
156700	22.712651	0
156900	22.770489	0
157100	22.828401	1
157300	22.886387	12
157500	22.944446	58
157700	23.002579	36691
157900	23.060786	225
158100	23.119065	88
158300	23.177419	41
158500	23.235846	25
158700	23.294347	10
158900	23.352921	10
159100	23.411568	4
159300	23.470290	2
159500	23.529084	8
159700	23.587953	3
159900	23.646895	4
160100	23.705910	2
160300	23.764999	1
160500	23.824161	2
160700	23.883398	1
160900	23.942707	5
161100	24.002090	212
161300	24.061547	3
161500	24.121077	0
161700	24.180681	0
161900	24.240359	0
162100	24.300110	1
162300	24.359934	1
162500	24.419832	2
162700	24.479804	0
162900	24.539849	1
163100	24.599967	0
163300	24.660160	0
163500	24.720425	0
163700	24.780765	0
163900	24.841178	0
164100	24.901664	1
164300	24.962224	17
164500	25.022858	449
164700	25.083565	0
164900	25.144345	1
165100	25.205200	0
165300	25.266127	0
165500	25.327129	0
165700	25.388203	0
165900	25.449352	0
166100	25.510574	0
166300	25.571869	0
166500	25.633238	0
166700	25.694681	0
166900	25.756197	0
167100	25.817787	0
167300	25.879450	0
167500	25.941187	18
167700	26.002997	1770
167900	26.064881	12
168100	26.126838	0
168300	26.188869	0
168500	26.250974	0
168700	26.313152	0
168900	26.375404	0
169100	26.437729	0
169300	26.500128	0
169500	26.562600	0
169700	26.625146	0
169900	26.687765	1
170100	26.750458	1
170300	26.813225	0
170500	26.876065	1
170700	26.938978	47
170900	27.001966	10544
171100	27.065026	250
171300	27.128160	4
171500	27.191368	4
171700	27.254650	1
171900	27.318005	0
172100	27.381433	0
172300	27.444935	0
172500	27.508511	0
172700	27.572160	2
172900	27.635882	0
173100	27.699679	3
173300	27.763548	0
173500	27.827492	0
173700	27.891508	1
173900	27.955599	282
174100	28.019763	1942
174300	28.084000	7
174500	28.148311	2
174700	28.212696	3
174900	28.277154	2
175100	28.341686	1
175300	28.406291	0
175500	28.470970	1
175700	28.535722	2
175900	28.600548	0
176100	28.665448	1
176300	28.730421	1
176500	28.795467	0
176700	28.860587	0
176900	28.925781	11
177100	28.991048	1951
177300	29.056389	9156
177500	29.121803	15
177700	29.187291	4
177900	29.252853	1
178100	29.318488	2
178300	29.384196	5
178500	29.449978	1
178700	29.515834	2
178900	29.581763	0
179100	29.647766	0
179300	29.713842	1
179500	29.779992	3
179700	29.846215	2
179900	29.912512	3
180100	29.978883	102
180300	30.045327	1128
180500	30.111844	0
180700	30.178435	1
180900	30.245100	0
181100	30.311838	1
181300	30.378650	1
181500	30.445535	0
181700	30.512494	2
181900	30.579527	0
182100	30.646633	0
182300	30.713812	2
182500	30.781065	0
182700	30.848392	0
182900	30.915792	1
183100	30.983266	1650
183300	31.050813	1420
183500	31.118434	3
183700	31.186128	1
183900	31.253896	3
184100	31.321738	1
184300	31.389653	2
184500	31.457641	2
184700	31.525704	1
184900	31.593839	1
185100	31.662048	0
185300	31.730331	0
185500	31.798688	0
185700	31.867117	0
185900	31.935621	0
186100	32.004198	56
186300	32.072848	46
186500	32.141573	0
186700	32.210370	0
186900	32.279241	0
187100	32.348186	0
187300	32.417204	0
187500	32.486296	0
187700	32.555462	1
187900	32.624701	0
188100	32.694013	0
188300	32.763399	0
188500	32.832859	0
188700	32.902392	0
188900	32.971999	2
189100	33.041679	34
189300	33.111433	0
189500	33.181260	0
189700	33.251161	0
189900	33.321135	0
190100	33.391183	1
190300	33.461305	0
190500	33.531500	0
190700	33.601769	0
190900	33.672111	0
191100	33.742527	0
191300	33.813016	0
191500	33.883579	0
191700	33.954215	1
191900	34.024925	0
192100	34.095709	0
192300	34.166566	0
192500	34.237496	2
192700	34.308500	0
192900	34.379578	0
193100	34.450729	0
193300	34.521954	0
193500	34.593253	0
193700	34.664624	0
193900	34.736070	0
194100	34.807589	1
194300	34.879181	0
194500	34.950848	3
194700	35.022587	4
194900	35.094400	0
195100	35.166287	0
195300	35.238248	0
195500	35.310281	0
195700	35.382389	0
195900	35.454570	0
196100	35.526824	0
196300	35.599152	0
196500	35.671554	1
196700	35.744029	0
196900	35.816578	0
197100	35.889200	0
197300	35.961896	94
197500	36.034665	100
197700	36.107508	0
197900	36.180425	0
198100	36.253415	0
198300	36.326478	0
198500	36.399615	0
198700	36.472826	0
198900	36.546110	1
199100	36.619468	0
199300	36.692899	0
199500	36.766404	0
199700	36.839983	0
199900	36.913635	26
200100	36.987360	1356
200300	37.061159	11
200500	37.135032	3
200700	37.208978	1
200900	37.282998	1
201100	37.357091	0
201300	37.431258	1
201500	37.505498	2
201700	37.579812	0
201900	37.654200	0
202100	37.728661	1
202300	37.803195	2
202500	37.877803	0
202700	37.952485	73
202900	38.027240	1831
203100	38.102069	2
203300	38.176971	1
203500	38.251947	0
203700	38.326997	0
203900	38.402120	1
204100	38.477316	1
204300	38.552586	1
204500	38.627930	1
204700	38.703347	2
204900	38.778838	1
205100	38.854402	9
205300	38.930040	8567
205500	39.005751	14671
205700	39.081536	202
205900	39.157395	87
206100	39.233327	41
206300	39.309332	33
206500	39.385412	30
206700	39.461564	17
206900	39.537791	16
207100	39.614090	33
207300	39.690464	19
207500	39.766911	11
207700	39.843431	11
207900	39.920025	288
208100	39.996693	2491
208300	40.073434	277
208500	40.150248	31
