# Binning: 200 channels
# Deadtime Correction: on
Channel	m/z	Intensity
100	0.000272	0
300	0.000505	0
500	0.000810	0
700	0.001187	0
900	0.001635	0
1100	0.002156	0
1300	0.002748	0
1500	0.003411	0
1700	0.004147	0
1900	0.004954	0
2100	0.005833	0
2300	0.006784	0
2500	0.007806	0
2700	0.008901	0
2900	0.010067	0
3100	0.011304	0
3300	0.012614	0
3500	0.013995	0
3700	0.015448	0
3900	0.016973	0
4100	0.018569	0
4300	0.020237	1
4500	0.021977	0
4700	0.023789	0
4900	0.025673	0
5100	0.027628	0
5300	0.029655	0
5500	0.031753	0
5700	0.033924	0
5900	0.036166	0
6100	0.038480	0
6300	0.040866	0
6500	0.043323	0
6700	0.045852	0
6900	0.048453	0
7100	0.051126	0
7300	0.053870	0
7500	0.056686	0
7700	0.059574	0
7900	0.062534	0
8100	0.065565	0
8300	0.068668	0
8500	0.071843	0
8700	0.075090	0
8900	0.078408	0
9100	0.081798	0
9300	0.085260	0
9500	0.088794	0
9700	0.092399	0
9900	0.096076	0
10100	0.099825	0
10300	0.103646	0
10500	0.107538	0
10700	0.111502	0
10900	0.115538	0
11100	0.119645	0
11300	0.123825	0
11500	0.128076	0
11700	0.132399	0
11900	0.136793	0
12100	0.141260	0
12300	0.145798	0
12500	0.150407	0
12700	0.155089	1
12900	0.159842	0
13100	0.164667	0
13300	0.169564	0
13500	0.174533	0
13700	0.179573	0
13900	0.184685	0
14100	0.189869	0
14300	0.195124	0
14500	0.200451	0
14700	0.205850	0
14900	0.211321	0
15100	0.216864	0
15300	0.222478	0
15500	0.228164	0
15700	0.233922	0
15900	0.239751	0
16100	0.245652	0
16300	0.251625	0
16500	0.257670	0
16700	0.263786	0
16900	0.269975	0
17100	0.276235	0
17300	0.282566	0
17500	0.288970	0
17700	0.295445	0
17900	0.301992	0
18100	0.308611	0
18300	0.315301	1
18500	0.322063	0
18700	0.328897	0
18900	0.335803	0
19100	0.342780	0
19300	0.349829	0
19500	0.356950	0
19700	0.364143	0
19900	0.371407	0
20100	0.378744	0
20300	0.386151	0
20500	0.393631	0
20700	0.401182	0
20900	0.408806	0
21100	0.416500	0
21300	0.424267	0
21500	0.432105	0
21700	0.440016	0
21900	0.447997	0
22100	0.456051	0
22300	0.464176	0
22500	0.472373	0
22700	0.480642	0
22900	0.488983	0
23100	0.497395	0
23300	0.505879	0
23500	0.514435	0
23700	0.523063	0
23900	0.531762	0
24100	0.540533	0
24300	0.549376	0
24500	0.558290	0
24700	0.567277	0
24900	0.576335	0
25100	0.585465	0
25300	0.594666	0
25500	0.603939	0
25700	0.613284	0
25900	0.622701	0
26100	0.632190	0
26300	0.641750	0
26500	0.651382	0
26700	0.661086	0
26900	0.670861	0
27100	0.680709	0
27300	0.690628	0
27500	0.700618	0
27700	0.710681	0
27900	0.720815	0
28100	0.731021	0
28300	0.741299	0
28500	0.751648	0
28700	0.762070	0
28900	0.772562	1
29100	0.783127	0
29300	0.793764	1
29500	0.804472	0
29700	0.815252	0
29900	0.826104	0
30100	0.837027	0
30300	0.848022	0
30500	0.859089	0
30700	0.870228	0
30900	0.881438	0
31100	0.892720	0
31300	0.904074	0
31500	0.915500	0
31700	0.926997	0
31900	0.938567	0
32100	0.950207	0
32300	0.961920	0
32500	0.973705	0
32700	0.985561	0
32900	0.997489	0
33100	1.009488	7789
33300	1.021560	0
33500	1.033703	1
33700	1.045918	0
33900	1.058204	0
34100	1.070563	0
34300	1.082993	0
34500	1.095495	0
34700	1.108068	0
34900	1.120713	0
35100	1.133431	1
35300	1.146219	0
35500	1.159080	0
35700	1.172012	0
35900	1.185016	0
36100	1.198092	0
36300	1.211240	0
36500	1.224459	0
36700	1.237750	0
36900	1.251113	0
37100	1.264548	0
37300	1.278054	0
37500	1.291632	0
37700	1.305282	0
37900	1.319003	0
38100	1.332797	0
38300	1.346662	0
38500	1.360598	0
38700	1.374607	0
38900	1.388687	0
39100	1.402839	0
39300	1.417063	0
39500	1.431358	0
39700	1.445726	0
39900	1.460165	0
40100	1.474675	0
40300	1.489258	0
40500	1.503912	0
40700	1.518638	0
40900	1.533436	0
41100	1.548305	0
41300	1.563247	0
41500	1.578260	0
41700	1.593344	0
41900	1.608501	0
42100	1.623729	0
42300	1.639029	0
42500	1.654401	0
42700	1.669844	0
42900	1.685359	0
43100	1.700946	0
43300	1.716605	0
43500	1.732335	0
43700	1.748137	0
43900	1.764011	0
44100	1.779957	0
44300	1.795974	0
44500	1.812064	0
44700	1.828225	0
44900	1.844457	0
45100	1.860762	0
45300	1.877138	0
45500	1.893586	0
45700	1.910105	0
45900	1.926697	0
46100	1.943360	0
46300	1.960095	0
46500	1.976901	0
46700	1.993780	1
46900	2.010730	339
47100	2.027752	0
47300	2.044845	0
47500	2.062010	0
47700	2.079248	0
47900	2.096556	0
48100	2.113937	0
48300	2.131389	0
48500	2.148913	0
48700	2.166509	0
48900	2.184177	0
49100	2.201916	0
49300	2.219727	0
49500	2.237610	0
49700	2.255565	0
49900	2.273591	0
50100	2.291689	0
50300	2.309859	0
50500	2.328100	0
50700	2.346414	0
50900	2.364799	0
51100	2.383255	0
51300	2.401784	0
51500	2.420384	0
51700	2.439056	0
51900	2.457800	0
52100	2.476615	0
52300	2.495503	0
52500	2.514462	0
52700	2.533492	0
52900	2.552595	0
53100	2.571769	0
53300	2.591015	0
53500	2.610333	0
53700	2.629722	0
53900	2.649184	0
54100	2.668716	0
54300	2.688321	0
54500	2.707998	0
54700	2.727746	0
54900	2.747566	0
55100	2.767458	0
55300	2.787421	0
55500	2.807456	0
55700	2.827563	0
55900	2.847742	0
56100	2.867992	0
56300	2.888314	0
56500	2.908708	0
56700	2.929174	0
56900	2.949711	0
57100	2.970321	0
57300	2.991001	0
57500	3.011754	4
57700	3.032578	70
57900	3.053475	0
58100	3.074442	0
58300	3.095482	0
58500	3.116593	0
58700	3.137777	0
58900	3.159031	0
59100	3.180358	0
59300	3.201756	0
59500	3.223227	0
59700	3.244768	0
59900	3.266382	0
60100	3.288067	0
60300	3.309824	0
60500	3.331653	0
60700	3.353554	0
60900	3.375526	0
61100	3.397570	0
61300	3.419686	0
61500	3.441874	0
61700	3.464133	0
61900	3.486464	0
62100	3.508867	0
62300	3.531341	0
62500	3.553888	0
62700	3.576506	0
62900	3.599196	0
63100	3.621957	0
63300	3.644790	0
63500	3.667695	0
63700	3.690672	0
63900	3.713721	0
64100	3.736841	0
64300	3.760033	0
64500	3.783297	0
64700	3.806632	0
64900	3.830039	0
65100	3.853518	0
65300	3.877069	0
65500	3.900692	0
65700	3.924386	0
65900	3.948152	0
66100	3.971990	0
66300	3.995899	0
66500	4.019880	0
66700	4.043933	0
66900	4.068058	0
67100	4.092254	0
67300	4.116523	0
67500	4.140863	0
67700	4.165274	0
67900	4.189758	0
68100	4.214313	0
68300	4.238940	0
68500	4.263639	0
68700	4.288409	0
68900	4.313251	0
69100	4.338165	0
69300	4.363151	0
69500	4.388208	0
69700	4.413337	0
69900	4.438538	0
70100	4.463811	0
70300	4.489155	0
70500	4.514571	0
70700	4.540059	0
70900	4.565619	0
71100	4.591250	0
71300	4.616953	0
71500	4.642728	0
71700	4.668575	0
71900	4.694493	0
72100	4.720483	0
72300	4.746545	0
72500	4.772679	0
72700	4.798884	0
72900	4.825161	0
73100	4.851510	0
73300	4.877931	0
73500	4.904423	0
73700	4.930987	0
73900	4.957623	0
74100	4.984330	0
74300	5.011110	0
74500	5.037961	0
74700	5.064884	0
74900	5.091878	0
75100	5.118944	0
75300	5.146083	0
75500	5.173292	0
75700	5.200574	0
75900	5.227927	0
76100	5.255352	1
76300	5.282849	0
76500	5.310417	0
76700	5.338058	0
76900	5.365770	0
77100	5.393553	0
77300	5.421409	0
77500	5.449336	0
77700	5.477335	0
77900	5.505406	0
78100	5.533548	0
78300	5.561763	0
78500	5.590049	0
78700	5.618406	0
78900	5.646836	0
79100	5.675337	0
79300	5.703910	0
79500	5.732555	0
79700	5.761271	0
79900	5.790059	0
80100	5.818919	0
80300	5.847851	0
80500	5.876854	0
80700	5.905930	0
80900	5.935077	0
81100	5.964295	0
81300	5.993586	0
81500	6.022948	137
81700	6.052382	2
81900	6.081887	1
82100	6.111465	0
82300	6.141114	0
82500	6.170835	0
82700	6.200628	0
82900	6.230492	0
83100	6.260428	0
83300	6.290436	0
83500	6.320516	0
83700	6.350667	0
83900	6.380890	0
84100	6.411185	0
84300	6.441552	0
84500	6.471990	0
84700	6.502500	0
84900	6.533082	0
85100	6.563735	0
85300	6.594461	0
85500	6.625258	0
85700	6.656127	0
85900	6.687067	0
86100	6.718080	0
86300	6.749164	0
86500	6.780320	0
86700	6.811547	0
86900	6.842846	0
87100	6.874217	0
87300	6.905660	1
87500	6.937175	0
87700	6.968761	0
87900	7.000419	1240
88100	7.032149	465
88300	7.063950	8
88500	7.095824	1
88700	7.127769	3
88900	7.159786	2
89100	7.191874	1
89300	7.224034	1
89500	7.256266	0
89700	7.288570	1
89900	7.320946	0
90100	7.353393	0
90300	7.385912	0
90500	7.418503	0
90700	7.451165	0
90900	7.483899	0
91100	7.516705	0
91300	7.549583	0
91500	7.582532	0
91700	7.615554	0
91900	7.648647	0
92100	7.681811	0
92300	7.715048	0
92500	7.748356	0
92700	7.781736	0
92900	7.815188	0
93100	7.848711	0
93300	7.882306	0
93500	7.915973	0
93700	7.949712	0
93900	7.983522	0
94100	8.017404	1
94300	8.051358	0
94500	8.085384	0
94700	8.119481	0
94900	8.153651	0
95100	8.187891	0
95300	8.222204	0
95500	8.256588	0
95700	8.291045	0
95900	8.325572	0
96100	8.360172	0
96300	8.394843	0
96500	8.429587	0
96700	8.464401	0
96900	8.499288	0
97100	8.534246	0
97300	8.569277	0
97500	8.604378	0
97700	8.639552	0
97900	8.674797	0
98100	8.710114	0
98300	8.745503	0
98500	8.780964	0
98700	8.816496	0
98900	8.852100	0
99100	8.887776	0
99300	8.923524	0
99500	8.959343	0
99700	8.995234	0
99900	9.031197	0
100100	9.067231	0
100300	9.103338	0
100500	9.139516	0
100700	9.175765	0
100900	9.212087	0
101100	9.248480	0
101300	9.284945	0
101500	9.321482	0
101700	9.358091	0
101900	9.394771	0
102100	9.431523	0
102300	9.468347	0
102500	9.505242	0
102700	9.542209	0
102900	9.579248	0
103100	9.616359	0
103300	9.653542	0
103500	9.690796	0
103700	9.728122	0
103900	9.765519	0
104100	9.802989	0
104300	9.840530	0
104500	9.878143	0
104700	9.915828	0
104900	9.953584	0
105100	9.991412	3
105300	10.029312	29
105500	10.067284	0
105700	10.105328	0
105900	10.143443	0
106100	10.181630	0
106300	10.219888	0
106500	10.258219	0
106700	10.296621	0
106900	10.335095	0
107100	10.373640	0
107300	10.412258	0
107500	10.450947	0
107700	10.489708	0
107900	10.528541	0
108100	10.567445	0
108300	10.606421	0
108500	10.645469	0
108700	10.684589	0
108900	10.723780	0
109100	10.763043	0
109300	10.802378	0
109500	10.841785	0
109700	10.881263	0
109900	10.920813	0
110100	10.960435	0
110300	11.000128	109
110500	11.039894	0
110700	11.079731	0
110900	11.119640	0
111100	11.159620	0
111300	11.199673	0
111500	11.239797	0
111700	11.279992	0
111900	11.320260	0
112100	11.360599	0
112300	11.401010	0
112500	11.441493	0
112700	11.482048	0
112900	11.522674	0
113100	11.563372	0
113300	11.604142	0
113500	11.644983	0
113700	11.685897	0
113900	11.726882	0
114100	11.767938	0
114300	11.809067	0
114500	11.850267	0
114700	11.891539	0
114900	11.932883	0
115100	11.974298	103
115300	12.015786	6768
115500	12.057345	2
115700	12.098975	0
115900	12.140678	0
116100	12.182452	0
116300	12.224298	0
116500	12.266216	0
116700	12.308205	0
116900	12.350266	0
117100	12.392399	0
117300	12.434604	0
117500	12.476881	0
117700	12.519229	0
117900	12.561649	0
118100	12.604140	0
118300	12.646704	0
118500	12.689339	0
118700	12.732046	0
118900	12.774825	0
119100	12.817675	1
119300	12.860597	0
119500	12.903591	1
119700	12.946657	1
119900	12.989794	3523
120100	13.033003	115
120300	13.076284	0
120500	13.119637	0
120700	13.163061	0
120900	13.206557	0
121100	13.250125	0
121300	13.293765	0
121500	13.337476	0
121700	13.381259	0
121900	13.425114	1
122100	13.469041	0
122300	13.513039	0
122500	13.557109	0
122700	13.601251	0
122900	13.645465	0
123100	13.689750	0
123300	13.734107	0
123500	13.778536	0
123700	13.823037	0
123900	13.867609	0
124100	13.912253	0
124300	13.956969	0
124500	14.001756	4702
124700	14.046616	16
124900	14.091547	1
125100	14.136549	1
125300	14.181624	0
125500	14.226770	0
125700	14.271988	0
125900	14.317278	0
126100	14.362640	0
126300	14.408073	0
126500	14.453578	0
126700	14.499155	0
126900	14.544803	0
127100	14.590523	0
127300	14.636315	1
127500	14.682179	0
127700	14.728115	0
127900	14.774122	0
128100	14.820201	0
128300	14.866352	1
128500	14.912574	0
128700	14.958868	0
128900	15.005234	18185
129100	15.051672	412
129300	15.098181	5
129500	15.144763	2
129700	15.191416	0
129900	15.238140	1
130100	15.284937	2
130300	15.331805	0
130500	15.378745	0
130700	15.425757	0
130900	15.472840	1
131100	15.519995	0
131300	15.567222	0
131500	15.614521	0
131700	15.661891	0
131900	15.709333	0
132100	15.756847	0
132300	15.804433	0
132500	15.852090	0
132700	15.899820	0
132900	15.947620	1
133100	15.995493	278
133300	16.043437	278
133500	16.091454	1
133700	16.139541	0
133900	16.187701	0
134100	16.235932	0
134300	16.284236	0
134500	16.332610	0
134700	16.381057	0
134900	16.429575	0
135100	16.478165	0
135300	16.526827	0
135500	16.575561	0
135700	16.624366	0
135900	16.673243	0
136100	16.722192	0
136300	16.771213	1
136500	16.820305	0
136700	16.869469	0
136900	16.918705	0
137100	16.968012	0
137300	17.017392	342
137500	17.066843	1
137700	17.116366	0
137900	17.165960	0
138100	17.215626	0
138300	17.265364	0
138500	17.315174	0
138700	17.365056	0
138900	17.415009	0
139100	17.465034	0
139300	17.515131	0
139500	17.565299	0
139700	17.615540	0
139900	17.665852	0
140100	17.716235	0
140300	17.766691	0
140500	17.817218	0
140700	17.867817	1
140900	17.918488	0
141100	17.969230	0
141300	18.020044	2360
141500	18.070930	64
141700	18.121888	5
141900	18.172918	2
142100	18.224019	1
142300	18.275192	1
142500	18.326436	0
142700	18.377753	0
142900	18.429141	0
143100	18.480601	0
143300	18.532133	0
143500	18.583736	0
143700	18.635411	0
143900	18.687158	0
144100	18.738977	0
144300	18.790867	0
144500	18.842829	0
144700	18.894863	1
144900	18.946969	0
145100	18.999146	1479
145300	19.051396	45
145500	19.103716	3
145700	19.156109	0
145900	19.208573	0
146100	19.261110	0
146300	19.313717	0
146500	19.366397	1
146700	19.419148	0
146900	19.471972	0
147100	19.524866	0
147300	19.577833	1
147500	19.630871	0
147700	19.683981	0
147900	19.737163	1
148100	19.790417	1
148300	19.843742	0
148500	19.897139	1
148700	19.950608	2
148900	20.004149	29
149100	20.057761	0
149300	20.111445	0
149500	20.165201	1
149700	20.219028	0
149900	20.272928	0
150100	20.326899	2
150300	20.380942	0
150500	20.435056	2
150700	20.489242	1
150900	20.543500	0
151100	20.597830	2
151300	20.652232	0
151500	20.706705	2
151700	20.761250	0
151900	20.815867	1
152100	20.870555	1
152300	20.925316	3
152500	20.980148	1
152700	21.035051	4
152900	21.090027	0
153100	21.145074	0
153300	21.200193	0
153500	21.255384	1
153700	21.310646	0
153900	21.365980	2
154100	21.421386	0
154300	21.476864	0
154500	21.532414	2
154700	21.588035	1
154900	21.643728	1
155100	21.699492	3
155300	21.755329	0
155500	21.811237	1
155700	21.867217	1
155900	21.923269	2
156100	21.979392	0
156300	22.035587	1
156500	22.091854	0
156700	22.148193	1
156900	22.204603	0
157100	22.261085	0
157300	22.317639	0
157500	22.374265	0
157700	22.430962	1
157900	22.487732	0
158100	22.544572	0
158300	22.601485	0
158500	22.658469	4
158700	22.715526	3
158900	22.772653	63
159100	22.829853	37
159300	22.887124	8
159500	22.944468	726
159700	23.001882	1866336
159900	23.059369	2576
160100	23.116927	1446
160300	23.174557	1117
160500	23.232259	808
160700	23.290033	528
160900	23.347878	409
161100	23.405795	326
161300	23.463784	231
161500	23.521845	191
161700	23.579977	149
161900	23.638181	124
162100	23.696457	115
162300	23.754804	77
162500	23.813224	78
162700	23.871715	64
162900	23.930278	53
163100	23.988912	1865
163300	24.047618	55
163500	24.106396	33
163700	24.165246	33
163900	24.224168	24
164100	24.283161	23
164300	24.342226	11
164500	24.401363	26
164700	24.460571	23
164900	24.519851	17
165100	24.579203	20
165300	24.638627	15
165500	24.698123	9
165700	24.757690	15
165900	24.817329	11
166100	24.877040	7
166300	24.936822	15
166500	24.996676	1742
166700	25.056602	16
166900	25.116600	11
167100	25.176669	3
167300	25.236811	5
167500	25.297024	8
167700	25.357308	7
167900	25.417665	2
168100	25.478093	6
168300	25.538593	5
168500	25.599165	2
168700	25.659808	1
168900	25.720523	7
169100	25.781310	2
169300	25.842169	6
169500	25.903099	9
169700	25.964101	458
169900	26.025175	7750
170100	26.086321	11
170300	26.147538	3
170500	26.208827	7
170700	26.270188	3
170900	26.331621	2
171100	26.393125	1
171300	26.454701	7
171500	26.516349	7
171700	26.578069	2
171900	26.639860	0
172100	26.701723	1
172300	26.763658	4
172500	26.825665	4
172700	26.887743	0
172900	26.949893	2169
173100	27.012115	59770
173300	27.074409	80
173500	27.136774	14
173700	27.199211	16
173900	27.261720	12
174100	27.324300	8
174300	27.386953	1
174500	27.449677	3
174700	27.512473	7
174900	27.575340	9
175100	27.638280	4
175300	27.701291	2
175500	27.764373	6
175700	27.827528	7
175900	27.890754	5
176100	27.954052	5714
176300	28.017422	11933
176500	28.080863	21
176700	28.144377	3
176900	28.207962	2
177100	28.271619	4
177300	28.335347	2
177500	28.399147	2
177700	28.463019	7
177900	28.526963	2
178100	28.590978	5
178300	28.655066	3
178500	28.719225	1
178700	28.783455	5
178900	28.847758	3
179100	28.912132	13
179300	28.976578	11530
179500	29.041096	72149
179700	29.105685	69
179900	29.170346	32
180100	29.235079	25
180300	29.299884	23
180500	29.364761	19
180700	29.429709	11
180900	29.494729	6
181100	29.559820	9
181300	29.624984	5
181500	29.690219	6
181700	29.755526	2
181900	29.820904	5
182100	29.886355	7
182300	29.951877	226
182500	30.017471	6874
182700	30.083137	106
182900	30.148874	3
183100	30.214683	5
183300	30.280564	7
183500	30.346517	5
183700	30.412541	2
183900	30.478637	5
184100	30.544805	2
184300	30.611045	4
184500	30.677356	1
184700	30.743739	4
184900	30.810194	2
185100	30.876721	1
185300	30.943319	55
185500	31.009989	8281
185700	31.076731	62
185900	31.143544	11
186100	31.210430	58
186300	31.277387	14
186500	31.344416	2
186700	31.411516	7
186900	31.478688	17
187100	31.545933	27
187300	31.613248	6
187500	31.680636	4
187700	31.748095	4
187900	31.815626	2
188100	31.883229	0
188300	31.950904	25
188500	32.018650	277
188700	32.086468	52
188900	32.154358	3
189100	32.222319	2
189300	32.290352	1
189500	32.358457	3
189700	32.426634	5
189900	32.494883	1
190100	32.563203	1
190300	32.631595	0
190500	32.700059	0
190700	32.768594	0
190900	32.837201	1
191100	32.905880	0
191300	32.974631	16
191500	33.043454	77
191700	33.112348	2
191900	33.181314	1
192100	33.250351	1
192300	33.319461	2
192500	33.388642	7
192700	33.457895	0
192900	33.527220	2
193100	33.596616	1
193300	33.666084	0
193500	33.735624	2
193700	33.805236	2
193900	33.874919	0
194100	33.944675	1
194300	34.014501	9
194500	34.084400	1
194700	34.154371	0
194900	34.224413	0
195100	34.294527	0
195300	34.364712	3
195500	34.434970	1
195700	34.505299	0
195900	34.575700	1
196100	34.646172	2
196300	34.716717	1
196500	34.787333	0
196700	34.858021	1
196900	34.928780	7
197100	34.999612	258
197300	35.070515	1
197500	35.141490	2
197700	35.212536	1
197900	35.283654	0
198100	35.354845	1
198300	35.426106	1
198500	35.497440	0
198700	35.568845	3
198900	35.640322	1
199100	35.711871	0
199300	35.783492	0
199500	35.855184	0
199700	35.926948	11
199900	35.998784	789
200100	36.070691	3
200300	36.142671	2
200500	36.214722	1
200700	36.286845	3
200900	36.359039	0
201100	36.431305	0
201300	36.503643	2
201500	36.576053	0
201700	36.648535	1
201900	36.721088	1
202100	36.793713	0
202300	36.866410	6
202500	36.939178	244
202700	37.012018	3716
202900	37.084930	6
203100	37.157914	4
203300	37.230970	1
203500	37.304097	4
203700	37.377296	1
203900	37.450567	3
204100	37.523909	3
204300	37.597323	3
204500	37.670809	1
204700	37.744367	1
204900	37.817996	2
205100	37.891698	12
205300	37.965471	329
205500	38.039315	5520
205700	38.113232	5
205900	38.187220	7
206100	38.261280	3
206300	38.335411	7
206500	38.409615	3
206700	38.483890	4
206900	38.558237	1
207100	38.632656	3
207300	38.707146	9
207500	38.781708	3
207700	38.856342	82
207900	38.931048	142450
