# Binning: 200 channels
# Deadtime Correction: on
Channel	m/z	Intensity
100	0.000397	0
300	0.000673	0
500	0.001020	0
700	0.001440	0
900	0.001931	0
1100	0.002495	0
1300	0.003130	0
1500	0.003838	0
1700	0.004617	0
1900	0.005469	0
2100	0.006393	0
2300	0.007389	0
2500	0.008456	0
2700	0.009596	0
2900	0.010808	0
3100	0.012092	0
3300	0.013448	0
3500	0.014876	0
3700	0.016376	0
3900	0.017948	0
4100	0.019593	0
4300	0.021309	0
4500	0.023097	0
4700	0.024957	0
4900	0.026890	0
5100	0.028894	0
5300	0.030970	0
5500	0.033119	0
5700	0.035339	0
5900	0.037632	0
6100	0.039997	0
6300	0.042433	0
6500	0.044942	0
6700	0.047523	0
6900	0.050175	0
7100	0.052900	0
7300	0.055697	0
7500	0.058566	0
7700	0.061507	1
7900	0.064520	0
8100	0.067605	0
8300	0.070762	0
8500	0.073991	0
8700	0.077292	0
8900	0.080666	0
9100	0.084111	0
9300	0.087628	0
9500	0.091217	0
9700	0.094879	0
9900	0.098612	0
10100	0.102418	0
10300	0.106295	0
10500	0.110245	0
10700	0.114266	0
10900	0.118360	0
11100	0.122526	0
11300	0.126763	0
11500	0.131073	0
11700	0.135455	0
11900	0.139909	0
12100	0.144435	0
12300	0.149033	0
12500	0.153703	0
12700	0.158445	0
12900	0.163259	0
13100	0.168145	0
13300	0.173103	0
13500	0.178133	0
13700	0.183235	0
13900	0.188410	0
14100	0.193656	0
14300	0.198974	1
14500	0.204365	0
14700	0.209827	0
14900	0.215362	0
15100	0.220968	0
15300	0.226647	0
15500	0.232398	0
15700	0.238220	0
15900	0.244115	0
16100	0.250082	0
16300	0.256121	0
16500	0.262231	0
16700	0.268414	0
16900	0.274669	0
17100	0.280996	0
17300	0.287395	0
17500	0.293866	0
17700	0.300409	0
17900	0.307025	0
18100	0.313712	0
18300	0.320471	0
18500	0.327302	0
18700	0.334206	0
18900	0.341181	0
19100	0.348229	0
19300	0.355348	0
19500	0.362539	0
19700	0.369803	0
19900	0.377139	0
20100	0.384546	0
20300	0.392026	0
20500	0.399578	0
20700	0.407201	0
20900	0.414897	0
21100	0.422665	0
21300	0.430505	0
21500	0.438417	0
21700	0.446401	0
21900	0.454457	0
22100	0.462585	0
22300	0.470785	0
22500	0.479057	0
22700	0.487401	0
22900	0.495818	0
23100	0.504306	0
23300	0.512866	0
23500	0.521499	0
23700	0.530203	0
23900	0.538979	0
24100	0.547828	0
24300	0.556749	0
24500	0.565741	0
24700	0.574806	0
24900	0.583942	0
25100	0.593151	0
25300	0.602432	0
25500	0.611785	0
25700	0.621210	0
25900	0.630706	0
26100	0.640275	0
26300	0.649916	0
26500	0.659629	0
26700	0.669414	0
26900	0.679272	0
27100	0.689201	0
27300	0.699202	0
27500	0.709275	0
27700	0.719420	0
27900	0.729638	0
28100	0.739927	0
28300	0.750289	0
28500	0.760722	0
28700	0.771227	0
28900	0.781805	0
29100	0.792455	0
29300	0.803176	0
29500	0.813970	0
29700	0.824836	0
29900	0.835773	0
30100	0.846783	0
30300	0.857865	0
30500	0.869019	0
30700	0.880245	0
30900	0.891543	0
31100	0.902913	0
31300	0.914355	0
31500	0.925869	0
31700	0.937455	0
31900	0.949113	0
32100	0.960844	0
32300	0.972646	0
32500	0.984520	0
32700	0.996466	2
32900	1.008485	1744
33100	1.020575	0
33300	1.032738	0
33500	1.044972	0
33700	1.057279	0
33900	1.069658	0
34100	1.082108	0
34300	1.094631	0
34500	1.107226	0
34700	1.119893	0
34900	1.132631	0
35100	1.145442	0
35300	1.158325	0
35500	1.171280	0
35700	1.184307	0
35900	1.197406	0
36100	1.210577	0
36300	1.223820	0
36500	1.237136	0
36700	1.250523	1
36900	1.263982	0
37100	1.277513	0
37300	1.291117	0
37500	1.304792	0
37700	1.318540	0
37900	1.332359	0
38100	1.346251	0
38300	1.360214	0
38500	1.374250	0
38700	1.388358	0
38900	1.402537	0
39100	1.416789	0
39300	1.431113	0
39500	1.445509	0
39700	1.459977	0
39900	1.474516	0
40100	1.489128	0
40300	1.503812	0
40500	1.518569	0
40700	1.533397	0
40900	1.548297	0
41100	1.563269	0
41300	1.578313	0
41500	1.593429	0
41700	1.608618	0
41900	1.623878	0
42100	1.639210	0
42300	1.654615	0
42500	1.670091	0
42700	1.685640	0
42900	1.701261	0
43100	1.716953	0
43300	1.732718	0
43500	1.748555	0
43700	1.764463	0
43900	1.780444	0
44100	1.796497	0
44300	1.812622	0
44500	1.828819	0
44700	1.845088	0
44900	1.861429	0
45100	1.877842	0
45300	1.894327	0
45500	1.910884	0
45700	1.927513	0
45900	1.944214	0
46100	1.960988	0
46300	1.977833	0
46500	1.994750	0
46700	2.011740	94
46900	2.028801	0
47100	2.045935	0
47300	2.063140	0
47500	2.080418	0
47700	2.097767	0
47900	2.115189	0
48100	2.132683	0
48300	2.150248	0
48500	2.167886	0
48700	2.185596	0
48900	2.203378	0
49100	2.221232	0
49300	2.239158	0
49500	2.257156	0
49700	2.275226	0
49900	2.293368	0
50100	2.311582	0
50300	2.329868	0
50500	2.348226	0
50700	2.366657	0
50900	2.385159	0
51100	2.403733	0
51300	2.422380	0
51500	2.441098	0
51700	2.459889	0
51900	2.478751	0
52100	2.497686	0
52300	2.516692	0
52500	2.535771	0
52700	2.554922	0
52900	2.574145	0
53100	2.593439	0
53300	2.612806	0
53500	2.632245	0
53700	2.651756	0
53900	2.671339	0
54100	2.690994	0
54300	2.710721	0
54500	2.730520	0
54700	2.750391	0
54900	2.770334	0
55100	2.790350	0
55300	2.810437	0
55500	2.830596	0
55700	2.850827	0
55900	2.871131	0
56100	2.891506	0
56300	2.911954	0
56500	2.932473	0
56700	2.953065	0
56900	2.973728	0
57100	2.994464	0
57300	3.015272	29
57500	3.036152	0
57700	3.057103	0
57900	3.078127	0
58100	3.099223	0
58300	3.120391	0
58500	3.141631	0
58700	3.162943	0
58900	3.184327	0
59100	3.205783	0
59300	3.227311	0
59500	3.248911	0
59700	3.270584	0
59900	3.292328	0
60100	3.314144	0
60300	3.336032	0
60500	3.357993	0
60700	3.380025	0
60900	3.402130	0
61100	3.424306	0
61300	3.446555	0
61500	3.468875	0
61700	3.491268	0
61900	3.513733	0
62100	3.536270	0
62300	3.558878	0
62500	3.581559	0
62700	3.604312	0
62900	3.627137	0
63100	3.650034	0
63300	3.673003	1
63500	3.696044	0
63700	3.719157	0
63900	3.742342	0
64100	3.765599	0
64300	3.788928	0
64500	3.812330	0
64700	3.835803	0
64900	3.859348	0
65100	3.882966	0
65300	3.906655	0
65500	3.930417	0
65700	3.954250	0
65900	3.978156	0
66100	4.002133	0
66300	4.026183	0
66500	4.050305	0
66700	4.074498	0
66900	4.098764	0
67100	4.123102	0
67300	4.147512	0
67500	4.171994	0
67700	4.196548	0
67900	4.221174	0
68100	4.245872	0
68300	4.270642	0
68500	4.295484	0
68700	4.320398	0
68900	4.345384	0
69100	4.370443	0
69300	4.395573	0
69500	4.420775	0
69700	4.446050	0
69900	4.471396	0
70100	4.496814	0
70300	4.522305	0
70500	4.547868	0
70700	4.573502	0
70900	4.599209	0
71100	4.624987	0
71300	4.650838	0
71500	4.676761	0
71700	4.702756	0
71900	4.728823	0
72100	4.754962	0
72300	4.781173	0
72500	4.807456	0
72700	4.833811	0
72900	4.860238	0
73100	4.886737	0
73300	4.913308	0
73500	4.939951	0
73700	4.966666	0
73900	4.993454	0
74100	5.020313	0
74300	5.047244	0
74500	5.074248	0
74700	5.101323	0
74900	5.128471	0
75100	5.155690	0
75300	5.182982	0
75500	5.210346	0
75700	5.237781	0
75900	5.265289	0
76100	5.292869	0
76300	5.320521	0
76500	5.348244	0
76700	5.376040	0
76900	5.403908	0
77100	5.431848	0
77300	5.459860	0
77500	5.487944	0
77700	5.516100	0
77900	5.544329	0
78100	5.572629	0
78300	5.601001	0
78500	5.629445	0
78700	5.657962	0
78900	5.686550	0
79100	5.715210	0
79300	5.743943	0
79500	5.772747	0
79700	5.801624	0
79900	5.830573	0
80100	5.859593	0
80300	5.888686	0
80500	5.917851	0
80700	5.947087	0
80900	5.976396	0
81100	6.005777	56
81300	6.035230	0
81500	6.064755	0
81700	6.094352	0
81900	6.124021	0
82100	6.153762	0
82300	6.183575	0
82500	6.213460	0
82700	6.243417	0
82900	6.273447	0
83100	6.303548	0
83300	6.333721	0
83500	6.363967	0
83700	6.394284	0
83900	6.424674	0
84100	6.455135	0
84300	6.485669	0
84500	6.516274	0
84700	6.546952	0
84900	6.577702	0
85100	6.608523	0
85300	6.639417	0
85500	6.670383	0
85700	6.701421	0
85900	6.732531	0
86100	6.763713	0
86300	6.794967	0
86500	6.826293	0
86700	6.857691	0
86900	6.889161	0
87100	6.920703	0
87300	6.952317	0
87500	6.984003	0
87700	7.015762	695
87900	7.047592	10
88100	7.079494	3
88300	7.111469	0
88500	7.143515	0
88700	7.175634	0
88900	7.207824	0
89100	7.240087	0
89300	7.272421	0
89500	7.304828	0
89700	7.337307	0
89900	7.369858	0
90100	7.402480	0
90300	7.435175	0
90500	7.467942	0
90700	7.500781	0
90900	7.533692	0
91100	7.566675	0
91300	7.599730	0
91500	7.632857	0
91700	7.666056	0
91900	7.699328	0
92100	7.732671	0
92300	7.766086	0
92500	7.799573	0
92700	7.833133	0
92900	7.866764	0
93100	7.900468	0
93300	7.934243	0
93500	7.968091	0
93700	8.002010	0
93900	8.036002	0
94100	8.070066	0
94300	8.104201	0
94500	8.138409	0
94700	8.172689	0
94900	8.207041	0
95100	8.241465	0
95300	8.275961	0
95500	8.310528	0
95700	8.345168	0
95900	8.379881	0
96100	8.414665	0
96300	8.449521	0
96500	8.484449	0
96700	8.519449	0
96900	8.554522	0
97100	8.589666	0
97300	8.624882	0
97500	8.660171	0
97700	8.695531	0
97900	8.730964	0
98100	8.766468	0
98300	8.802045	0
98500	8.837693	0
98700	8.873414	0
98900	8.909207	0
99100	8.945071	0
99300	8.981008	0
99500	9.017017	0
99700	9.053098	0
99900	9.089251	0
100100	9.125476	0
100300	9.161773	0
100500	9.198142	0
100700	9.234583	0
100900	9.271096	0
101100	9.307681	0
101300	9.344339	0
101500	9.381068	0
101700	9.417869	0
101900	9.454743	0
102100	9.491688	0
102300	9.528705	0
102500	9.565795	0
102700	9.602956	0
102900	9.640190	0
103100	9.677496	0
103300	9.714873	0
103500	9.752323	0
103700	9.789845	0
103900	9.827439	0
104100	9.865104	0
104300	9.902842	0
104500	9.940652	0
104700	9.978534	0
104900	10.016488	6
105100	10.054514	0
105300	10.092612	0
105500	10.130782	0
105700	10.169025	0
105900	10.207339	0
106100	10.245725	0
106300	10.284183	0
106500	10.322714	0
106700	10.361316	0
106900	10.399991	0
107100	10.438737	0
107300	10.477556	0
107500	10.516446	0
107700	10.555409	0
107900	10.594444	0
108100	10.633550	0
108300	10.672729	0
108500	10.711980	0
108700	10.751303	0
108900	10.790698	0
109100	10.830164	0
109300	10.869703	0
109500	10.909314	0
109700	10.948997	0
109900	10.988753	11
110100	11.028580	11
110300	11.068479	0
110500	11.108450	0
110700	11.148493	0
110900	11.188609	0
111100	11.228796	0
111300	11.269055	0
111500	11.309387	0
111700	11.349790	0
111900	11.390266	0
112100	11.430813	0
112300	11.471433	0
112500	11.512125	0
112700	11.552888	0
112900	11.593724	0
113100	11.634632	0
113300	11.675612	0
113500	11.716664	0
113700	11.757788	0
113900	11.798984	0
114100	11.840252	0
114300	11.881592	0
114500	11.923004	0
114700	11.964488	3
114900	12.006044	1824
115100	12.047672	2
115300	12.089373	0
115500	12.131145	0
115700	12.172989	0
115900	12.214906	0
116100	12.256894	0
116300	12.298955	0
116500	12.341087	0
116700	12.383292	0
116900	12.425568	0
117100	12.467917	0
117300	12.510338	0
117500	12.552830	0
117700	12.595395	0
117900	12.638032	0
118100	12.680741	0
118300	12.723522	0
118500	12.766375	0
118700	12.809300	0
118900	12.852297	0
119100	12.895366	0
119300	12.938507	0
119500	12.981720	51
119700	13.025005	1012
119900	13.068363	0
120100	13.111792	0
120300	13.155293	0
120500	13.198867	0
120700	13.242512	0
120900	13.286230	0
121100	13.330019	0
121300	13.373881	0
121500	13.417814	0
121700	13.461820	0
121900	13.505898	0
122100	13.550047	0
122300	13.594269	0
122500	13.638563	0
122700	13.682929	0
122900	13.727367	0
123100	13.771877	0
123300	13.816459	0
123500	13.861113	0
123700	13.905839	1
123900	13.950637	1
124100	13.995507	927
124300	14.040449	174
124500	14.085464	0
124700	14.130550	0
124900	14.175708	0
125100	14.220939	0
125300	14.266241	0
125500	14.311616	0
125700	14.357062	0
125900	14.402581	0
126100	14.448171	0
126300	14.493834	0
126500	14.539569	0
126700	14.585375	0
126900	14.631254	0
127100	14.677205	1
127300	14.723228	0
127500	14.769323	0
127700	14.815490	0
127900	14.861729	0
128100	14.908040	0
128300	14.954423	0
128500	15.000878	1480
128700	15.047405	882
128900	15.094004	4
129100	15.140676	0
129300	15.187419	0
129500	15.234234	1
129700	15.281122	0
129900	15.328081	0
130100	15.375113	0
130300	15.422216	0
130500	15.469392	0
130700	15.516639	0
130900	15.563959	0
131100	15.611351	1
131300	15.658814	0
131500	15.706350	0
131700	15.753958	0
131900	15.801638	0
132100	15.849390	0
132300	15.897214	0
132500	15.945110	0
132700	15.993078	42
132900	16.041118	30
133100	16.089230	0
133300	16.137414	0
133500	16.185670	0
133700	16.233998	0
133900	16.282399	0
134100	16.330871	0
134300	16.379415	0
134500	16.428032	0
134700	16.476720	0
134900	16.525481	0
135100	16.574313	0
135300	16.623218	0
135500	16.672195	0
135700	16.721243	0
135900	16.770364	0
136100	16.819557	0
136300	16.868822	0
136500	16.918159	0
136700	16.967567	0
136900	17.017048	40
137100	17.066601	0
137300	17.116226	0
137500	17.165924	0
137700	17.215693	0
137900	17.265534	0
138100	17.315447	0
138300	17.365432	0
138500	17.415490	0
138700	17.465619	0
138900	17.515820	0
139100	17.566094	0
139300	17.616439	0
139500	17.666857	0
139700	17.717346	0
139900	17.767908	0
140100	17.818541	0
140300	17.869247	0
140500	17.920025	0
140700	17.970875	0
140900	18.021796	286
141100	18.072790	26
141300	18.123856	3
141500	18.174994	1
141700	18.226204	2
141900	18.277486	0
142100	18.328840	0
142300	18.380266	0
142500	18.431765	0
142700	18.483335	0
142900	18.534977	0
143100	18.586691	0
143300	18.638478	0
143500	18.690336	0
143700	18.742266	0
143900	18.794269	0
144100	18.846343	0
144300	18.898490	0
144500	18.950709	0
144700	19.002999	98
144900	19.055362	0
145100	19.107797	0
145300	19.160303	0
145500	19.212882	0
145700	19.265533	0
145900	19.318256	0
146100	19.371051	0
146300	19.423918	0
146500	19.476857	0
146700	19.529868	0
146900	19.582951	0
147100	19.636106	0
147300	19.689333	0
147500	19.742633	0
147700	19.796004	0
147900	19.849447	0
148100	19.902963	0
148300	19.956550	2
148500	20.010210	0
148700	20.063941	0
148900	20.117745	0
149100	20.171620	0
149300	20.225568	0
149500	20.279588	0
149700	20.333679	0
149900	20.387843	0
150100	20.442079	0
150300	20.496387	0
150500	20.550767	0
150700	20.605219	0
150900	20.659742	1
151100	20.714339	0
151300	20.769007	1
151500	20.823747	0
151700	20.878559	2
151900	20.933443	0
152100	20.988399	0
152300	21.043428	0
152500	21.098528	1
152700	21.153700	0
152900	21.208945	0
153100	21.264261	2
153300	21.319650	0
153500	21.375110	0
153700	21.430643	1
153900	21.486247	0
154100	21.541924	0
154300	21.597673	4
154500	21.653494	5
154700	21.709386	1
154900	21.765351	0
155100	21.821388	0
155300	21.877497	0
155500	21.933678	0
155700	21.989931	1
155900	22.046256	0
156100	22.102653	0
156300	22.159122	0
156500	22.215664	0
156700	22.272277	0
156900	22.328962	0
157100	22.385719	0
157300	22.442549	1
157500	22.499450	1
157700	22.556424	52
157900	22.613469	15
158100	22.670587	3
158300	22.727776	9
158500	22.785038	5
158700	22.842372	4
158900	22.899777	73
159100	22.957255	39862
159300	23.014805	398293
159500	23.072427	2686
159700	23.130121	1156
159900	23.187887	710
160100	23.245725	425
160300	23.303635	322
160500	23.361617	209
160700	23.419671	153
160900	23.477797	112
161100	23.535995	66
161300	23.594265	77
161500	23.652608	56
161700	23.711022	59
161900	23.769508	38
162100	23.828067	21
162300	23.886697	22
162500	23.945400	27
162700	24.004174	472
162900	24.063021	14
163100	24.121939	21
163300	24.180930	16
163500	24.239993	7
163700	24.299127	7
163900	24.358334	4
164100	24.417613	13
164300	24.476964	8
164500	24.536387	7
164700	24.595882	10
164900	24.655449	2
165100	24.715088	7
165300	24.774799	5
165500	24.834582	4
165700	24.894437	3
165900	24.954365	9
166100	25.014364	507
166300	25.074435	5
166500	25.134579	4
166700	25.194794	5
166900	25.255081	4
167100	25.315441	1
167300	25.375873	7
167500	25.436376	3
167700	25.496952	3
167900	25.557599	1
168100	25.618319	6
168300	25.679111	5
168500	25.739975	2
168700	25.800910	2
168900	25.861918	1
169100	25.922998	3
169300	25.984150	997
169500	26.045374	758
169700	26.106670	2
169900	26.168038	2
170100	26.229479	2
170300	26.290991	3
170500	26.352575	2
170700	26.414231	2
170900	26.475960	1
171100	26.537760	2
171300	26.599632	3
171500	26.661577	2
171700	26.723593	2
171900	26.785682	1
172100	26.847842	2
172300	26.910075	2
172500	26.972380	416
172700	27.034756	7348
172900	27.097205	11
173100	27.159726	3
173300	27.222319	3
173500	27.284984	2
173700	27.347721	0
173900	27.410530	3
174100	27.473411	2
174300	27.536364	1
174500	27.599389	2
174700	27.662486	1
174900	27.725655	0
175100	27.788896	0
175300	27.852210	0
175500	27.915595	5
175700	27.979052	933
175900	28.042582	1370
176100	28.106183	3
176300	28.169857	3
176500	28.233602	1
176700	28.297420	1
176900	28.361309	0
177100	28.425271	1
177300	28.489305	0
177500	28.553410	0
177700	28.617588	0
177900	28.681838	0
178100	28.746160	0
178300	28.810554	1
178500	28.875020	0
178700	28.939558	29
178900	29.004168	3281
179100	29.068850	4773
179300	29.133604	2
179500	29.198430	1
179700	29.263328	1
179900	29.328299	2
180100	29.393341	2
180300	29.458455	1
180500	29.523642	0
180700	29.588900	0
180900	29.654231	2
181100	29.719633	1
181300	29.785108	1
181500	29.850654	0
181700	29.916273	0
181900	29.981964	131
182100	30.047726	862
182300	30.113561	7
182500	30.179468	0
182700	30.245447	1
182900	30.311498	2
183100	30.377621	1
183300	30.443816	1
183500	30.510083	0
183700	30.576422	2
183900	30.642833	1
184100	30.709316	1
184300	30.775872	1
184500	30.842499	0
184700	30.909198	1
184900	30.975969	72
185100	31.042813	688
185300	31.109728	0
185500	31.176716	1
185700	31.243775	2
185900	31.310907	1
186100	31.378110	0
186300	31.445386	0
186500	31.512734	1
186700	31.580154	2
186900	31.647645	0
187100	31.715209	0
187300	31.782845	2
187500	31.850553	0
187700	31.918333	0
187900	31.986185	16
188100	32.054109	31
188300	32.122105	0
188500	32.190173	0
188700	32.258313	0
188900	32.326526	0
189100	32.394810	0
189300	32.463166	1
189500	32.531594	0
189700	32.600095	0
189900	32.668667	0
190100	32.737312	0
190300	32.806028	1
190500	32.874817	0
190700	32.943677	0
190900	33.012610	11
191100	33.081615	0
191300	33.150692	0
191500	33.219840	0
191700	33.289061	1
191900	33.358354	1
192100	33.427719	0
192300	33.497156	1
192500	33.566665	0
192700	33.636246	0
192900	33.705899	0
193100	33.775624	0
193300	33.845421	0
193500	33.915291	0
193700	33.985232	1
193900	34.055245	0
194100	34.125330	1
194300	34.195488	1
194500	34.265717	0
194700	34.336019	0
194900	34.406392	0
195100	34.476838	0
195300	34.547355	0
195500	34.617945	1
195700	34.688607	0
195900	34.759341	0
196100	34.830146	0
196300	34.901024	0
196500	34.971974	45
196700	35.042996	3
196900	35.114090	0
197100	35.185256	0
197300	35.256494	0
197500	35.327804	0
197700	35.399186	1
197900	35.470640	0
198100	35.542166	0
198300	35.613765	0
198500	35.685435	0
198700	35.757177	0
198900	35.828992	0
199100	35.900878	0
199300	35.972837	218
199500	36.044867	15
199700	36.116970	0
199900	36.189144	1
200100	36.261391	1
200300	36.333710	0
200500	36.406100	0
200700	36.478563	0
200900	36.551098	0
201100	36.623705	0
201300	36.696384	0
201500	36.769135	0
201700	36.841958	0
201900	36.914853	24
202100	36.987820	1331
202300	37.060859	21
202500	37.133970	0
202700	37.207153	0
202900	37.280409	1
203100	37.353736	0
203300	37.427135	4
203500	37.500607	1
203700	37.574150	1
203900	37.647765	0
204100	37.721453	0
204300	37.795213	0
204500	37.869044	1
204700	37.942948	28
204900	38.016923	1579
205100	38.090971	5
205300	38.165091	0
205500	38.239283	2
205700	38.313547	1
205900	38.387883	0
206100	38.462290	4
206300	38.536770	1
206500	38.611322	1
206700	38.685947	0
206900	38.760643	2
207100	38.835411	13
207300	38.910251	158
207500	38.985163	36409
207700	39.060148	4059
207900	39.135204	455
208100	39.210332	291
208300	39.285533	197
208500	39.360805	147
