# Binning: 200 channels
# Deadtime Correction: on
Channel	m/z	Intensity
884	0.000009	0
1084	0.000082	0
1284	0.000227	0
1484	0.000445	0
1684	0.000735	0
1884	0.001098	0
2084	0.001533	0
2284	0.002041	0
2484	0.002622	0
2684	0.003275	0
2884	0.004000	0
3084	0.004798	0
3284	0.005669	0
3484	0.006612	0
3684	0.007628	0
3884	0.008717	0
4084	0.009878	0
4284	0.011111	0
4484	0.012417	0
4684	0.013796	0
4884	0.015247	0
5084	0.016771	0
5284	0.018367	0
5484	0.020036	0
5684	0.021777	0
5884	0.023591	0
6084	0.025478	0
6284	0.027437	0
6484	0.029468	0
6684	0.031572	0
6884	0.033749	0
7084	0.035998	0
7284	0.038320	0
7484	0.040715	0
7684	0.043182	0
7884	0.045721	0
8084	0.048333	0
8284	0.051018	0
8484	0.053775	0
8684	0.056605	0
8884	0.059507	0
9084	0.062482	0
9284	0.065529	0
9484	0.068649	0
9684	0.071842	0
9884	0.075107	0
10084	0.078444	0
10284	0.081855	0
10484	0.085337	0
10684	0.088893	0
10884	0.092520	0
11084	0.096221	0
11284	0.099994	0
11484	0.103839	0
11684	0.107757	0
11884	0.111748	0
12084	0.115811	0
12284	0.119947	0
12484	0.124155	0
12684	0.128436	0
12884	0.132789	0
13084	0.137215	0
13284	0.141714	0
13484	0.146285	0
13684	0.150929	0
13884	0.155645	0
14084	0.160434	0
14284	0.165295	0
14484	0.170229	0
14684	0.175235	0
14884	0.180314	0
15084	0.185466	0
15284	0.190690	0
15484	0.195986	0
15684	0.201355	0
15884	0.206797	0
16084	0.212311	0
16284	0.217898	0
16484	0.223558	0
16684	0.229290	0
16884	0.235094	0
17084	0.240971	0
17284	0.246921	0
17484	0.252943	0
17684	0.259038	0
17884	0.265205	0
18084	0.271445	0
18284	0.277757	0
18484	0.284142	0
18684	0.290600	0
18884	0.297130	0
19084	0.303733	0
19284	0.310408	0
19484	0.317156	0
19684	0.323976	0
19884	0.330869	0
20084	0.337834	0
20284	0.344872	0
20484	0.351983	0
20684	0.359166	0
20884	0.366421	0
21084	0.373750	0
21284	0.381150	0
21484	0.388624	0
21684	0.396169	0
21884	0.403788	0
22084	0.411479	0
22284	0.419242	0
22484	0.427078	0
22684	0.434987	0
22884	0.442968	0
23084	0.451022	0
23284	0.459148	0
23484	0.467347	0
23684	0.475619	0
23884	0.483963	0
24084	0.492379	0
24284	0.500868	0
24484	0.509430	0
24684	0.518064	0
24884	0.526771	0
25084	0.535550	0
25284	0.544402	0
25484	0.553326	0
25684	0.562323	0
25884	0.571393	0
26084	0.580535	0
26284	0.589750	0
26484	0.599037	0
26684	0.608397	0
26884	0.617829	0
27084	0.627334	0
27284	0.636911	0
27484	0.646561	0
27684	0.656284	0
27884	0.666079	0
28084	0.675946	0
28284	0.685887	0
28484	0.695899	0
28684	0.705985	0
28884	0.716142	0
29084	0.726373	0
29284	0.736676	0
29484	0.747051	0
29684	0.757499	0
29884	0.768020	0
30084	0.778613	0
30284	0.789279	0
30484	0.800017	0
30684	0.810828	0
30884	0.821712	0
31084	0.832668	0
31284	0.843696	0
31484	0.854797	0
31684	0.865971	0
31884	0.877217	0
32084	0.888536	0
32284	0.899927	0
32484	0.911391	0
32684	0.922928	0
32884	0.934537	20
33084	0.946218	6539
33284	0.957972	0
33484	0.969799	0
33684	0.981698	0
33884	0.993670	0
34084	1.005714	0
34284	1.017831	0
34484	1.030020	0
34684	1.042282	0
34884	1.054617	0
35084	1.067024	0
35284	1.079504	0
35484	1.092056	0
35684	1.104681	0
35884	1.117378	0
36084	1.130148	0
36284	1.142990	0
36484	1.155905	0
36684	1.168893	0
36884	1.181953	0
37084	1.195086	0
37284	1.208291	0
37484	1.221569	0
37684	1.234919	0
37884	1.248342	0
38084	1.261837	0
38284	1.275405	0
38484	1.289046	0
38684	1.302759	0
38884	1.316544	0
39084	1.330403	1
39284	1.344333	0
39484	1.358337	0
39684	1.372413	0
39884	1.386561	0
40084	1.400782	0
40284	1.415076	0
40484	1.429442	0
40684	1.443880	0
40884	1.458392	0
41084	1.472975	0
41284	1.487632	0
41484	1.502361	0
41684	1.517162	0
41884	1.532036	0
42084	1.546983	0
42284	1.562002	0
42484	1.577093	0
42684	1.592258	0
42884	1.607494	0
43084	1.622804	0
43284	1.638186	0
43484	1.653640	0
43684	1.669167	0
43884	1.684767	0
44084	1.700439	0
44284	1.716183	0
44484	1.732001	0
44684	1.747890	0
44884	1.763853	0
45084	1.779888	0
45284	1.795995	0
45484	1.812175	0
45684	1.828428	0
45884	1.844753	0
46084	1.861150	0
46284	1.877621	0
46484	1.894163	0
46684	1.910779	0
46884	1.927467	281
47084	1.944227	1
47284	1.961060	0
47484	1.977966	0
47684	1.994944	0
47884	2.011994	0
48084	2.029118	0
48284	2.046313	0
48484	2.063582	0
48684	2.080923	0
48884	2.098336	0
49084	2.115822	0
49284	2.133381	0
49484	2.151012	0
49684	2.168715	0
49884	2.186492	0
50084	2.204340	0
50284	2.222262	0
50484	2.240256	0
50684	2.258322	0
50884	2.276461	0
51084	2.294673	0
51284	2.312957	0
51484	2.331313	0
51684	2.349743	0
51884	2.368244	0
52084	2.386819	0
52284	2.405466	0
52484	2.424185	0
52684	2.442977	0
52884	2.461842	0
53084	2.480779	0
53284	2.499788	0
53484	2.518871	0
53684	2.538025	0
53884	2.557253	0
54084	2.576553	0
54284	2.595925	0
54484	2.615370	0
54684	2.634888	0
54884	2.654478	0
55084	2.674141	0
55284	2.693876	0
55484	2.713684	0
55684	2.733564	0
55884	2.753517	0
56084	2.773542	0
56284	2.793640	0
56484	2.813811	0
56684	2.834054	0
56884	2.854370	0
57084	2.874758	0
57284	2.895219	0
57484	2.915752	76
57684	2.936358	0
57884	2.957036	0
58084	2.977787	1
58284	2.998611	0
58484	3.019507	0
58684	3.040476	0
58884	3.061517	0
59084	3.082631	0
59284	3.103817	0
59484	3.125076	0
59684	3.146407	0
59884	3.167812	0
60084	3.189288	0
60284	3.210837	0
60484	3.232459	0
60684	3.254153	0
60884	3.275920	0
61084	3.297759	0
61284	3.319671	0
61484	3.341656	0
61684	3.363713	0
61884	3.385842	0
62084	3.408044	0
62284	3.430319	0
62484	3.452666	0
62684	3.475086	0
62884	3.497578	0
63084	3.520143	0
63284	3.542781	0
63484	3.565491	0
63684	3.588273	0
63884	3.611129	0
64084	3.634056	0
64284	3.657056	0
64484	3.680129	0
64684	3.703275	0
64884	3.726493	0
65084	3.749783	0
65284	3.773146	0
65484	3.796582	0
65684	3.820090	0
65884	3.843670	0
66084	3.867324	0
66284	3.891050	0
66484	3.914848	0
66684	3.938719	0
66884	3.962662	0
67084	3.986678	0
67284	4.010767	0
67484	4.034928	0
67684	4.059162	0
67884	4.083468	0
68084	4.107847	0
68284	4.132298	0
68484	4.156822	0
68684	4.181418	0
68884	4.206088	0
69084	4.230829	0
69284	4.255643	0
69484	4.280530	0
69684	4.305489	0
69884	4.330521	0
70084	4.355625	0
70284	4.380802	0
70484	4.406052	0
70684	4.431374	0
70884	4.456768	0
71084	4.482236	0
71284	4.507775	0
71484	4.533387	0
71684	4.559072	0
71884	4.584830	0
72084	4.610660	0
72284	4.636562	0
72484	4.662537	0
72684	4.688585	0
72884	4.714705	0
73084	4.740897	0
73284	4.767163	0
73484	4.793501	0
73684	4.819911	0
73884	4.846394	0
74084	4.872949	0
74284	4.899577	0
74484	4.926278	0
74684	4.953051	0
74884	4.979897	0
75084	5.006815	0
75284	5.033806	0
75484	5.060869	0
75684	5.088005	0
75884	5.115214	0
76084	5.142495	0
76284	5.169848	0
76484	5.197274	0
76684	5.224773	0
76884	5.252344	0
77084	5.279988	0
77284	5.307705	0
77484	5.335494	0
77684	5.363355	0
77884	5.391289	0
78084	5.419296	0
78284	5.447375	1
78484	5.475526	0
78684	5.503751	0
78884	5.532048	0
79084	5.560417	0
79284	5.588859	0
79484	5.617373	0
79684	5.645960	0
79884	5.674620	0
80084	5.703352	0
80284	5.732157	0
80484	5.761034	0
80684	5.789984	0
80884	5.819006	0
81084	5.848101	0
81284	5.877269	106
81484	5.906509	2
81684	5.935821	0
81884	5.965207	0
82084	5.994664	0
82284	6.024195	0
82484	6.053797	0
82684	6.083473	0
82884	6.113221	0
83084	6.143041	0
83284	6.172934	0
83484	6.202900	0
83684	6.232938	0
83884	6.263049	0
84084	6.293232	0
84284	6.323488	0
84484	6.353816	0
84684	6.384217	0
84884	6.414691	0
85084	6.445237	0
85284	6.475855	0
85484	6.506546	0
85684	6.537310	0
85884	6.568146	0
86084	6.599055	0
86284	6.630037	0
86484	6.661090	0
86684	6.692217	0
86884	6.723416	0
87084	6.754688	0
87284	6.786032	0
87484	6.817449	0
87684	6.848938	1
87884	6.880500	1231
88084	6.912134	6
88284	6.943841	0
88484	6.975620	0
88684	7.007473	0
88884	7.039397	0
89084	7.071394	0
89284	7.103464	0
89484	7.135606	0
89684	7.167821	0
89884	7.200108	0
90084	7.232468	0
90284	7.264901	0
90484	7.297406	0
90684	7.329984	0
90884	7.362634	0
91084	7.395356	0
91284	7.428152	0
91484	7.461020	0
91684	7.493960	0
91884	7.526973	1
92084	7.560058	0
92284	7.593216	0
92484	7.626447	0
92684	7.659750	0
92884	7.693126	0
93084	7.726574	0
93284	7.760095	0
93484	7.793689	0
93684	7.827354	0
93884	7.861093	0
94084	7.894904	0
94284	7.928788	0
94484	7.962744	0
94684	7.996773	0
94884	8.030874	0
95084	8.065048	0
95284	8.099294	0
95484	8.133613	0
95684	8.168005	0
95884	8.202469	0
96084	8.237005	1
96284	8.271614	0
96484	8.306296	0
96684	8.341050	0
96884	8.375877	0
97084	8.410777	0
97284	8.445749	0
97484	8.480793	0
97684	8.515910	0
97884	8.551100	0
98084	8.586362	0
98284	8.621697	0
98484	8.657104	0
98684	8.692584	0
98884	8.728136	0
99084	8.763761	0
99284	8.799459	0
99484	8.835229	0
99684	8.871071	0
99884	8.906987	0
100084	8.942974	0
100284	8.979035	0
100484	9.015167	0
100684	9.051373	0
100884	9.087651	0
101084	9.124001	0
101284	9.160424	0
101484	9.196920	0
101684	9.233488	0
101884	9.270129	0
102084	9.306842	0
102284	9.343628	0
102484	9.380486	0
102684	9.417417	0
102884	9.454421	0
103084	9.491497	0
103284	9.528646	0
103484	9.565867	0
103684	9.603160	0
103884	9.640527	0
104084	9.677966	0
104284	9.715477	0
104484	9.753061	0
104684	9.790718	0
104884	9.828447	0
105084	9.866248	24
105284	9.904122	0
105484	9.942069	0
105684	9.980088	0
105884	10.018180	0
106084	10.056345	0
106284	10.094582	0
106484	10.132891	0
106684	10.171273	0
106884	10.209728	0
107084	10.248255	0
107284	10.286855	0
107484	10.325527	0
107684	10.364272	0
107884	10.403089	0
108084	10.441979	0
108284	10.480942	0
108484	10.519977	0
108684	10.559085	0
108884	10.598265	0
109084	10.637518	0
109284	10.676843	0
109484	10.716241	0
109684	10.755711	0
109884	10.795254	0
110084	10.834870	92
110284	10.874558	1
110484	10.914318	0
110684	10.954151	0
110884	10.994057	1
111084	11.034036	0
111284	11.074086	0
111484	11.114210	0
111684	11.154406	0
111884	11.194674	0
112084	11.235015	0
112284	11.275429	0
112484	11.315915	0
112684	11.356474	0
112884	11.397105	0
113084	11.437809	0
113284	11.478586	0
113484	11.519435	0
113684	11.560356	0
113884	11.601350	0
114084	11.642417	0
114284	11.683556	0
114484	11.724768	0
114684	11.766052	0
114884	11.807409	171
115084	11.848838	4221
115284	11.890340	2
115484	11.931915	0
115684	11.973562	0
115884	12.015282	0
116084	12.057074	0
116284	12.098938	0
116484	12.140876	1
116684	12.182886	0
116884	12.224968	0
117084	12.267123	0
117284	12.309351	1
117484	12.351651	0
117684	12.394023	0
117884	12.436469	0
118084	12.478986	0
118284	12.521577	0
118484	12.564239	0
118684	12.606975	0
118884	12.649783	1
119084	12.692663	0
119284	12.735616	0
119484	12.778642	0
119684	12.821740	2781
119884	12.864911	12
120084	12.908154	1
120284	12.951470	1
120484	12.994859	0
120684	13.038320	0
120884	13.081853	0
121084	13.125459	0
121284	13.169138	0
121484	13.212889	0
121684	13.256713	0
121884	13.300609	0
122084	13.344578	0
122284	13.388620	0
122484	13.432734	0
122684	13.476920	1
122884	13.521179	0
123084	13.565511	0
123284	13.609915	0
123484	13.654392	0
123684	13.698941	1
123884	13.743563	0
124084	13.788257	1
124284	13.833024	3702
124484	13.877864	6
124684	13.922776	0
124884	13.967761	0
125084	14.012818	0
125284	14.057948	0
125484	14.103150	0
125684	14.148425	0
125884	14.193772	0
126084	14.239192	0
126284	14.284685	0
126484	14.330250	0
126684	14.375888	0
126884	14.421598	0
127084	14.467381	0
127284	14.513236	0
127484	14.559164	1
127684	14.605164	0
127884	14.651237	0
128084	14.697383	1
128284	14.743601	0
128484	14.789891	1
128684	14.836255	10251
128884	14.882690	23
129084	14.929199	6
129284	14.975780	0
129484	15.022433	0
129684	15.069159	0
129884	15.115958	0
130084	15.162829	1
130284	15.209772	0
130484	15.256789	2
130684	15.303877	0
130884	15.351039	1
131084	15.398273	1
131284	15.445579	0
131484	15.492958	0
131684	15.540410	0
131884	15.587934	0
132084	15.635530	0
132284	15.683200	1
132484	15.730941	0
132684	15.778756	0
132884	15.826643	217
133084	15.874602	51
133284	15.922634	0
133484	15.970739	0
133684	16.018916	0
133884	16.067165	0
134084	16.115488	0
134284	16.163882	0
134484	16.212350	0
134684	16.260890	0
134884	16.309502	0
135084	16.358187	0
135284	16.406945	0
135484	16.455775	0
135684	16.504677	0
135884	16.553653	0
136084	16.602700	0
136284	16.651821	0
136484	16.701014	0
136684	16.750279	0
136884	16.799617	79
137084	16.849028	61
137284	16.898511	0
137484	16.948066	0
137684	16.997695	0
137884	17.047395	0
138084	17.097169	0
138284	17.147015	0
138484	17.196933	0
138684	17.246924	0
138884	17.296988	0
139084	17.347124	0
139284	17.397332	0
139484	17.447614	0
139684	17.497967	0
139884	17.548394	0
140084	17.598893	0
140284	17.649464	0
140484	17.700108	0
140684	17.750825	0
140884	17.801614	29
141084	17.852475	1315
141284	17.903410	8
141484	17.954416	1
141684	18.005496	2
141884	18.056648	0
142084	18.107872	0
142284	18.159169	0
142484	18.210539	0
142684	18.261981	0
142884	18.313495	0
143084	18.365083	0
143284	18.416743	0
143484	18.468475	0
143684	18.520280	0
143884	18.572157	0
144084	18.624107	0
144284	18.676130	0
144484	18.728225	0
144684	18.780393	0
144884	18.832633	364
145084	18.884946	1
145284	18.937331	0
145484	18.989789	0
145684	19.042319	0
145884	19.094922	0
146084	19.147598	0
146284	19.200346	0
146484	19.253167	1
146684	19.306060	0
146884	19.359026	0
147084	19.412064	0
147284	19.465175	1
147484	19.518358	0
147684	19.571614	1
147884	19.624943	0
148084	19.678344	0
148284	19.731818	0
148484	19.785364	10
148684	19.838983	0
148884	19.892674	0
149084	19.946438	0
149284	20.000275	0
149484	20.054184	0
149684	20.108165	0
149884	20.162219	0
150084	20.216346	0
150284	20.270545	0
150484	20.324817	0
150684	20.379161	1
150884	20.433578	0
151084	20.488068	0
151284	20.542630	0
151484	20.597264	0
151684	20.651971	1
151884	20.706751	2
152084	20.761603	0
152284	20.816528	1
152484	20.871526	0
152684	20.926595	1
152884	20.981738	2
153084	21.036953	0
153284	21.092241	0
153484	21.147601	0
153684	21.203033	1
153884	21.258539	0
154084	21.314116	0
154284	21.369767	1
154484	21.425490	0
154684	21.481285	0
154884	21.537153	0
155084	21.593094	0
155284	21.649107	0
155484	21.705193	0
155684	21.761351	3
155884	21.817582	1
156084	21.873885	0
156284	21.930261	1
156484	21.986709	0
156684	22.043230	0
156884	22.099824	0
157084	22.156490	1
157284	22.213229	0
157484	22.270040	0
157684	22.326924	0
157884	22.383880	0
158084	22.440909	2
158284	22.498011	3
158484	22.555185	0
158684	22.612431	133
158884	22.669750	15
159084	22.727142	38
159284	22.784606	1547829
159484	22.842143	120423
159684	22.899752	1929
159884	22.957434	1326
160084	23.015189	960
160284	23.073016	630
160484	23.130915	440
160684	23.188888	302
160884	23.246932	262
161084	23.305050	185
161284	23.363239	149
161484	23.421502	95
161684	23.479837	109
161884	23.538244	74
162084	23.596724	57
162284	23.655277	63
162484	23.713902	46
162684	23.772600	481
162884	23.831370	863
163084	23.890213	25
163284	23.949128	27
163484	24.008116	22
163684	24.067176	18
163884	24.126309	14
164084	24.185515	18
164284	24.244793	6
164484	24.304144	12
164684	24.363567	8
164884	24.423063	5
165084	24.482631	6
165284	24.542272	6
165484	24.601986	7
165684	24.661772	8
165884	24.721630	6
166084	24.781562	130
166284	24.841565	1141
166484	24.901642	11
166684	24.961790	7
166884	25.022012	2
167084	25.082306	2
167284	25.142672	6
167484	25.203111	4
167684	25.263623	1
167884	25.324207	1
168084	25.384864	1
168284	25.445593	0
168484	25.506395	1
168684	25.567269	1
168884	25.628216	4
169084	25.689235	5
169284	25.750328	59
169484	25.811492	5776
169684	25.872729	17
169884	25.934039	0
170084	25.995421	1
170284	26.056876	4
170484	26.118403	0
170684	26.180003	1
170884	26.241676	3
171084	26.303421	3
171284	26.365239	2
171484	26.427129	2
171684	26.489091	2
171884	26.551127	3
172084	26.613234	3
172284	26.675415	1
172484	26.737668	17
172684	26.799993	3445
172884	26.862391	27241
173084	26.924862	9
173284	26.987405	5
173484	27.050021	2
173684	27.112709	4
173884	27.175470	2
174084	27.238303	0
174284	27.301209	1
174484	27.364188	2
174684	27.427239	3
174884	27.490362	2
175084	27.553559	2
175284	27.616827	2
175484	27.680169	1
175684	27.743582	31
175884	27.807069	7154
176084	27.870628	4056
176284	27.934259	4
176484	27.997963	3
176684	28.061740	2
176884	28.125589	2
177084	28.189511	1
177284	28.253505	1
177484	28.317572	0
177684	28.381711	2
177884	28.445923	2
178084	28.510208	0
178284	28.574565	1
178484	28.638994	3
178684	28.703496	3
178884	28.768071	710
179084	28.832718	33836
179284	28.897438	544
179484	28.962231	13
179684	29.027096	9
179884	29.092033	7
180084	29.157043	8
180284	29.222126	3
180484	29.287281	1
180684	29.352509	3
180884	29.417809	0
181084	29.483182	2
181284	29.548627	2
181484	29.614145	3
181684	29.679736	2
181884	29.745399	6
182084	29.811134	909
182284	29.876942	4076
182484	29.942823	3
182684	30.008776	2
182884	30.074802	6
183084	30.140901	1
183284	30.207072	0
183484	30.273315	0
183684	30.339631	2
183884	30.406020	9
184084	30.472481	0
184284	30.539015	2
184484	30.605621	2
184684	30.672300	3
184884	30.739051	2
185084	30.805875	2964
185284	30.872772	552
185484	30.939741	1
185684	31.006782	5
185884	31.073897	13
186084	31.141083	3
186284	31.208343	1
186484	31.275674	5
186684	31.343079	6
186884	31.410556	3
187084	31.478105	0
187284	31.545727	6
187484	31.613422	0
187684	31.681189	1
187884	31.749029	2
188084	31.816941	87
188284	31.884926	147
188484	31.952983	0
188684	32.021113	0
188884	32.089316	0
189084	32.157591	5
189284	32.225939	1
189484	32.294359	2
189684	32.362851	1
189884	32.431417	1
190084	32.500055	0
190284	32.568765	1
190484	32.637548	0
190684	32.706403	0
190884	32.775332	10
191084	32.844332	39
191284	32.913405	0
191484	32.982551	0
191684	33.051769	0
191884	33.121060	2
192084	33.190424	3
192284	33.259860	2
192484	33.329368	3
192684	33.398949	0
192884	33.468603	1
193084	33.538329	0
193284	33.608128	1
193484	33.677999	2
193684	33.747943	0
193884	33.817959	6
194084	33.888048	3
194284	33.958210	0
194484	34.028444	2
194684	34.098750	0
194884	34.169130	0
195084	34.239581	0
195284	34.310106	1
195484	34.380703	0
195684	34.451372	0
195884	34.522114	3
196084	34.592928	1
196284	34.663815	0
196484	34.734775	0
196684	34.805807	185
196884	34.876912	0
197084	34.948089	1
197284	35.019339	2
197484	35.090662	1
197684	35.162057	0
197884	35.233524	0
198084	35.305064	1
198284	35.376677	0
198484	35.448362	1
198684	35.520120	0
198884	35.591950	0
199084	35.663853	0
199284	35.735828	2
199484	35.807876	379
199684	35.879997	1
199884	35.952190	0
200084	36.024456	0
200284	36.096794	3
200484	36.169204	0
200684	36.241688	1
200884	36.314244	2
201084	36.386872	0
201284	36.459573	0
201484	36.532347	3
201684	36.605193	1
201884	36.678111	5
202084	36.751102	141
202284	36.824166	2268
202484	36.897303	2
202684	36.970511	0
202884	37.043793	2
203084	37.117147	4
203284	37.190573	1
203484	37.264072	2
203684	37.337644	2
203884	37.411288	1
204084	37.485005	0
204284	37.558794	1
204484	37.632656	0
204684	37.706591	5
204884	37.780598	158
205084	37.854677	3698
205284	37.928829	9
205484	38.003054	4
205684	38.077351	0
205884	38.151721	1
206084	38.226163	3
206284	38.300678	0
206484	38.375265	3
206684	38.449925	2
206884	38.524658	12
207084	38.599463	10
207284	38.674341	15
207484	38.749291	34407
207684	38.824314	97833
207884	38.899409	1633
208084	38.974577	756
208284	39.049817	469
208484	39.125130	354
208684	39.200516	237
