# Binning: 200 channels
# Deadtime Correction: on
Channel	m/z	Intensity
100	0.000226	0
300	0.000441	0
500	0.000726	0
700	0.001083	0
900	0.001510	0
1100	0.002008	0
1300	0.002577	0
1500	0.003217	0
1700	0.003928	0
1900	0.004710	0
2100	0.005563	0
2300	0.006486	0
2500	0.007480	0
2700	0.008546	0
2900	0.009682	0
3100	0.010889	0
3300	0.012167	0
3500	0.013516	0
3700	0.014936	0
3900	0.016426	0
4100	0.017988	0
4300	0.019620	0
4500	0.021323	0
4700	0.023098	0
4900	0.024943	0
5100	0.026859	0
5300	0.028846	0
5500	0.030903	0
5700	0.033032	0
5900	0.035231	0
6100	0.037502	0
6300	0.039843	0
6500	0.042255	0
6700	0.044739	0
6900	0.047293	0
7100	0.049917	0
7300	0.052613	0
7500	0.055380	0
7700	0.058217	0
7900	0.061126	0
8100	0.064105	0
8300	0.067155	0
8500	0.070276	0
8700	0.073468	0
8900	0.076731	0
9100	0.080065	0
9300	0.083470	0
9500	0.086945	0
9700	0.090492	0
9900	0.094109	0
10100	0.097797	0
10300	0.101557	0
10500	0.105387	0
10700	0.109287	0
10900	0.113259	0
11100	0.117302	0
11300	0.121416	0
11500	0.125600	0
11700	0.129855	0
11900	0.134182	0
12100	0.138579	0
12300	0.143047	0
12500	0.147586	0
12700	0.152196	0
12900	0.156876	0
13100	0.161628	0
13300	0.166450	0
13500	0.171344	0
13700	0.176308	0
13900	0.181343	0
14100	0.186449	0
14300	0.191626	0
14500	0.196874	0
14700	0.202193	0
14900	0.207582	0
15100	0.213043	0
15300	0.218574	0
15500	0.224176	0
15700	0.229850	0
15900	0.235594	0
16100	0.241409	0
16300	0.247294	0
16500	0.253251	0
16700	0.259279	0
16900	0.265377	0
17100	0.271547	0
17300	0.277787	0
17500	0.284098	0
17700	0.290480	0
17900	0.296933	0
18100	0.303457	0
18300	0.310052	0
18500	0.316717	0
18700	0.323454	0
18900	0.330261	0
19100	0.337140	0
19300	0.344089	0
19500	0.351109	0
19700	0.358200	0
19900	0.365362	0
20100	0.372594	0
20300	0.379898	0
20500	0.387273	0
20700	0.394718	0
20900	0.402234	0
21100	0.409822	0
21300	0.417480	0
21500	0.425209	0
21700	0.433009	0
21900	0.440879	0
22100	0.448821	0
22300	0.456834	0
22500	0.464917	0
22700	0.473071	0
22900	0.481297	0
23100	0.489593	0
23300	0.497960	0
23500	0.506398	0
23700	0.514906	0
23900	0.523486	0
24100	0.532137	0
24300	0.540858	0
24500	0.549650	0
24700	0.558514	0
24900	0.567448	0
25100	0.576453	0
25300	0.585529	0
25500	0.594675	0
25700	0.603893	0
25900	0.613182	0
26100	0.622541	0
26300	0.631972	0
26500	0.641473	0
26700	0.651045	0
26900	0.660688	0
27100	0.670402	0
27300	0.680187	0
27500	0.690042	0
27700	0.699969	0
27900	0.709966	0
28100	0.720035	0
28300	0.730174	0
28500	0.740384	0
28700	0.750665	0
28900	0.761017	0
29100	0.771440	0
29300	0.781934	0
29500	0.792498	0
29700	0.803134	0
29900	0.813840	0
30100	0.824618	0
30300	0.835466	0
30500	0.846385	0
30700	0.857375	0
30900	0.868436	0
31100	0.879567	0
31300	0.890770	0
31500	0.902043	0
31700	0.913388	0
31900	0.924803	0
32100	0.936289	0
32300	0.947846	1
32500	0.959474	0
32700	0.971173	0
32900	0.982943	1
33100	0.994784	0
33300	1.006695	6802
33500	1.018677	14
33700	1.030731	0
33900	1.042855	0
34100	1.055050	0
34300	1.067316	0
34500	1.079653	0
34700	1.092061	0
34900	1.104539	0
35100	1.117089	0
35300	1.129709	0
35500	1.142401	0
35700	1.155163	0
35900	1.167996	0
36100	1.180900	0
36300	1.193875	0
36500	1.206921	0
36700	1.220037	0
36900	1.233225	0
37100	1.246483	0
37300	1.259812	0
37500	1.273213	0
37700	1.286684	0
37900	1.300226	0
38100	1.313839	0
38300	1.327523	0
38500	1.341277	0
38700	1.355103	0
38900	1.368999	0
39100	1.382967	0
39300	1.397005	0
39500	1.411114	0
39700	1.425294	0
39900	1.439545	0
40100	1.453867	0
40300	1.468259	0
40500	1.482723	0
40700	1.497257	0
40900	1.511863	0
41100	1.526539	0
41300	1.541286	0
41500	1.556104	0
41700	1.570993	0
41900	1.585953	0
42100	1.600984	0
42300	1.616085	0
42500	1.631258	0
42700	1.646501	0
42900	1.661815	0
43100	1.677200	0
43300	1.692656	0
43500	1.708183	0
43700	1.723781	0
43900	1.739450	0
44100	1.755190	0
44300	1.771000	0
44500	1.786881	0
44700	1.802834	0
44900	1.818857	0
45100	1.834951	0
45300	1.851116	0
45500	1.867352	0
45700	1.883658	0
45900	1.900036	0
46100	1.916485	0
46300	1.933004	0
46500	1.949594	0
46700	1.966255	0
46900	1.982987	0
47100	1.999790	0
47300	2.016664	315
47500	2.033609	0
47700	2.050625	0
47900	2.067711	0
48100	2.084869	0
48300	2.102097	0
48500	2.119396	0
48700	2.136766	0
48900	2.154207	0
49100	2.171719	0
49300	2.189302	0
49500	2.206955	0
49700	2.224680	0
49900	2.242475	0
50100	2.260342	0
50300	2.278279	0
50500	2.296287	0
50700	2.314366	0
50900	2.332516	0
51100	2.350737	0
51300	2.369028	0
51500	2.387391	0
51700	2.405824	0
51900	2.424329	0
52100	2.442904	0
52300	2.461550	0
52500	2.480267	0
52700	2.499055	0
52900	2.517914	0
53100	2.536843	0
53300	2.555844	0
53500	2.574915	0
53700	2.594058	0
53900	2.613271	0
54100	2.632555	0
54300	2.651910	0
54500	2.671336	0
54700	2.690833	0
54900	2.710400	0
55100	2.730039	0
55300	2.749748	0
55500	2.769529	0
55700	2.789380	0
55900	2.809302	0
56100	2.829295	0
56300	2.849359	0
56500	2.869494	0
56700	2.889700	0
56900	2.909976	0
57100	2.930324	0
57300	2.950742	0
57500	2.971231	0
57700	2.991792	0
57900	3.012423	48
58100	3.033125	27
58300	3.053897	0
58500	3.074741	0
58700	3.095656	0
58900	3.116641	0
59100	3.137698	0
59300	3.158825	0
59500	3.180023	0
59700	3.201292	0
59900	3.222632	0
60100	3.244043	0
60300	3.265525	0
60500	3.287077	0
60700	3.308701	0
60900	3.330395	0
61100	3.352160	0
61300	3.373997	0
61500	3.395904	0
61700	3.417882	0
61900	3.439930	0
62100	3.462050	0
62300	3.484241	0
62500	3.506502	0
62700	3.528835	0
62900	3.551238	0
63100	3.573712	0
63300	3.596257	0
63500	3.618873	0
63700	3.641560	0
63900	3.664318	0
64100	3.687147	0
64300	3.710046	0
64500	3.733017	0
64700	3.756058	0
64900	3.779170	0
65100	3.802353	0
65300	3.825607	0
65500	3.848932	0
65700	3.872328	0
65900	3.895794	0
66100	3.919332	0
66300	3.942940	0
66500	3.966620	0
66700	3.990370	0
66900	4.014191	0
67100	4.038083	1
67300	4.062046	0
67500	4.086080	0
67700	4.110184	0
67900	4.134360	0
68100	4.158606	0
68300	4.182924	0
68500	4.207312	0
68700	4.231771	0
68900	4.256301	0
69100	4.280902	0
69300	4.305574	0
69500	4.330317	0
69700	4.355130	0
69900	4.380015	0
70100	4.404970	0
70300	4.429996	0
70500	4.455093	0
70700	4.480261	0
70900	4.505500	0
71100	4.530810	0
71300	4.556191	0
71500	4.581642	0
71700	4.607165	0
71900	4.632758	0
72100	4.658423	0
72300	4.684158	0
72500	4.709964	0
72700	4.735841	0
72900	4.761788	0
73100	4.787807	0
73300	4.813897	0
73500	4.840057	0
73700	4.866289	0
73900	4.892591	0
74100	4.918964	0
74300	4.945408	0
74500	4.971923	0
74700	4.998509	0
74900	5.025166	0
75100	5.051893	0
75300	5.078692	0
75500	5.105561	0
75700	5.132502	0
75900	5.159513	0
76100	5.186595	0
76300	5.213748	0
76500	5.240972	0
76700	5.268266	0
76900	5.295632	0
77100	5.323068	0
77300	5.350576	0
77500	5.378154	0
77700	5.405803	0
77900	5.433523	0
78100	5.461314	0
78300	5.489176	0
78500	5.517109	0
78700	5.545113	0
78900	5.573187	0
79100	5.601333	0
79300	5.629549	0
79500	5.657836	0
79700	5.686194	0
79900	5.714623	0
80100	5.743123	0
80300	5.771694	0
80500	5.800336	0
80700	5.829048	0
80900	5.857832	0
81100	5.886686	0
81300	5.915611	0
81500	5.944607	0
81700	5.973674	0
81900	6.002812	73
82100	6.032021	5
82300	6.061301	0
82500	6.090651	0
82700	6.120073	0
82900	6.149565	0
83100	6.179128	0
83300	6.208762	0
83500	6.238467	1
83700	6.268243	0
83900	6.298090	0
84100	6.328008	0
84300	6.357996	0
84500	6.388056	0
84700	6.418186	0
84900	6.448387	0
85100	6.478659	0
85300	6.509003	0
85500	6.539416	0
85700	6.569901	0
85900	6.600457	0
86100	6.631084	0
86300	6.661781	0
86500	6.692549	0
86700	6.723389	0
86900	6.754299	0
87100	6.785280	0
87300	6.816332	0
87500	6.847455	0
87700	6.878648	0
87900	6.909913	0
88100	6.941248	0
88300	6.972655	1
88500	7.004132	836
88700	7.035680	24
88900	7.067299	1
89100	7.098989	0
89300	7.130750	1
89500	7.162582	0
89700	7.194484	0
89900	7.226458	1
90100	7.258502	0
90300	7.290618	1
90500	7.322804	0
90700	7.355061	0
90900	7.387389	0
91100	7.419788	0
91300	7.452257	0
91500	7.484798	0
91700	7.517410	0
91900	7.550092	0
92100	7.582845	0
92300	7.615669	0
92500	7.648565	0
92700	7.681531	0
92900	7.714567	0
93100	7.747675	0
93300	7.780854	0
93500	7.814103	0
93700	7.847424	0
93900	7.880815	0
94100	7.914277	0
94300	7.947810	0
94500	7.981414	0
94700	8.015089	1
94900	8.048835	0
95100	8.082652	0
95300	8.116539	0
95500	8.150498	0
95700	8.184527	0
95900	8.218627	0
96100	8.252798	0
96300	8.287040	0
96500	8.321353	0
96700	8.355737	0
96900	8.390192	0
97100	8.424717	0
97300	8.459314	0
97500	8.493981	0
97700	8.528719	0
97900	8.563528	0
98100	8.598408	0
98300	8.633359	0
98500	8.668381	0
98700	8.703474	0
98900	8.738637	0
99100	8.773872	0
99300	8.809177	0
99500	8.844553	0
99700	8.880001	0
99900	8.915519	0
100100	8.951108	0
100300	8.986767	0
100500	9.022498	0
100700	9.058300	0
100900	9.094172	0
101100	9.130115	0
101300	9.166130	0
101500	9.202215	0
101700	9.238371	0
101900	9.274598	0
102100	9.310896	0
102300	9.347264	0
102500	9.383704	0
102700	9.420214	0
102900	9.456796	0
103100	9.493448	0
103300	9.530171	0
103500	9.566965	0
103700	9.603830	0
103900	9.640766	0
104100	9.677773	0
104300	9.714851	0
104500	9.751999	0
104700	9.789218	0
104900	9.826509	0
105100	9.863870	0
105300	9.901302	0
105500	9.938805	0
105700	9.976379	0
105900	10.014024	40
106100	10.051739	1
106300	10.089526	0
106500	10.127383	0
106700	10.165311	0
106900	10.203311	0
107100	10.241381	0
107300	10.279522	0
107500	10.317733	0
107700	10.356016	0
107900	10.394370	0
108100	10.432794	0
108300	10.471290	0
108500	10.509856	0
108700	10.548493	0
108900	10.587201	0
109100	10.625980	0
109300	10.664830	0
109500	10.703751	0
109700	10.742743	0
109900	10.781805	0
110100	10.820939	0
110300	10.860143	0
110500	10.899418	0
110700	10.938764	0
110900	10.978181	0
111100	11.017669	159
111300	11.057228	0
111500	11.096858	0
111700	11.136558	0
111900	11.176330	0
112100	11.216172	0
112300	11.256085	0
112500	11.296069	0
112700	11.336124	0
112900	11.376250	0
113100	11.416447	0
113300	11.456715	0
113500	11.497053	0
113700	11.537463	0
113900	11.577943	0
114100	11.618495	0
114300	11.659117	0
114500	11.699810	0
114700	11.740574	0
114900	11.781408	0
115100	11.822314	0
115300	11.863291	0
115500	11.904338	1
115700	11.945457	0
115900	11.986646	3354
116100	12.027906	11
116300	12.069237	0
116500	12.110639	0
116700	12.152112	0
116900	12.193655	0
117100	12.235270	0
117300	12.276956	0
117500	12.318712	0
117700	12.360539	0
117900	12.402437	0
118100	12.444406	0
118300	12.486446	0
118500	12.528557	0
118700	12.570739	0
118900	12.612992	0
119100	12.655315	0
119300	12.697709	0
119500	12.740175	0
119700	12.782711	0
119900	12.825318	0
120100	12.867996	0
120300	12.910745	0
120500	12.953565	0
120700	12.996455	1727
120900	13.039417	10
121100	13.082449	0
121300	13.125552	0
121500	13.168727	0
121700	13.211972	0
121900	13.255288	0
122100	13.298675	0
122300	13.342132	0
122500	13.385661	0
122700	13.429260	0
122900	13.472931	0
123100	13.516672	0
123300	13.560484	0
123500	13.604368	0
123700	13.648322	0
123900	13.692346	0
124100	13.736442	0
124300	13.780609	0
124500	13.824846	0
124700	13.869155	0
124900	13.913534	0
125100	13.957984	0
125300	14.002505	3505
125500	14.047097	3
125700	14.091760	0
125900	14.136494	0
126100	14.181299	0
126300	14.226174	0
126500	14.271121	0
126700	14.316138	0
126900	14.361226	0
127100	14.406386	0
127300	14.451616	0
127500	14.496916	0
127700	14.542288	0
127900	14.587731	0
128100	14.633245	0
128300	14.678829	0
128500	14.724484	0
128700	14.770211	0
128900	14.816008	0
129100	14.861876	1
129300	14.907815	0
129500	14.953824	3
129700	14.999905	14345
129900	15.046057	7650
130100	15.092279	6
130300	15.138573	5
130500	15.184937	2
130700	15.231372	1
130900	15.277878	4
131100	15.324455	1
131300	15.371103	0
131500	15.417822	1
131700	15.464611	0
131900	15.511472	0
132100	15.558403	0
132300	15.605405	1
132500	15.652478	0
132700	15.699623	0
132900	15.746837	0
133100	15.794123	0
133300	15.841480	0
133500	15.888908	0
133700	15.936406	0
133900	15.983976	274
134100	16.031616	873
134300	16.079327	3
134500	16.127109	0
134700	16.174962	0
134900	16.222886	0
135100	16.270881	1
135300	16.318946	0
135500	16.367083	0
135700	16.415290	0
135900	16.463568	0
136100	16.511918	1
136300	16.560338	0
136500	16.608829	0
136700	16.657391	0
136900	16.706023	0
137100	16.754727	0
137300	16.803502	0
137500	16.852347	0
137700	16.901263	0
137900	16.950250	1
138100	16.999309	291
138300	17.048438	418
138500	17.097637	1
138700	17.146908	0
138900	17.196250	0
139100	17.245662	0
139300	17.295146	0
139500	17.344700	0
139700	17.394325	0
139900	17.444022	0
140100	17.493789	0
140300	17.543626	0
140500	17.593535	0
140700	17.643515	0
140900	17.693565	0
141100	17.743687	0
141300	17.793879	0
141500	17.844142	0
141700	17.894477	0
141900	17.944882	0
142100	17.995357	169
142300	18.045904	3054
142500	18.096522	3
142700	18.147211	2
142900	18.197970	3
143100	18.248800	1
143300	18.299702	1
143500	18.350674	0
143700	18.401717	1
143900	18.452831	0
144100	18.504016	0
144300	18.555271	1
144500	18.606598	0
144700	18.657995	0
144900	18.709464	1
145100	18.761003	0
145300	18.812613	0
145500	18.864294	0
145700	18.916046	0
145900	18.967869	19
146100	19.019763	3499
146300	19.071727	7
146500	19.123763	1
146700	19.175869	0
146900	19.228046	0
147100	19.280294	1
147300	19.332614	2
147500	19.385003	0
147700	19.437464	0
147900	19.489996	1
148100	19.542599	0
148300	19.595272	2
148500	19.648017	0
148700	19.700832	0
148900	19.753718	1
149100	19.806675	0
149300	19.859703	0
149500	19.912802	0
149700	19.965972	4
149900	20.019212	1
150100	20.072524	0
150300	20.125906	0
150500	20.179360	0
150700	20.232884	0
150900	20.286479	0
151100	20.340145	2
151300	20.393882	2
151500	20.447689	0
151700	20.501568	1
151900	20.555518	0
152100	20.609538	0
152300	20.663629	0
152500	20.717792	0
152700	20.772025	0
152900	20.826329	1
153100	20.880703	1
153300	20.935149	2
153500	20.989666	1
153700	21.044253	11
153900	21.098912	0
154100	21.153641	2
154300	21.208441	0
154500	21.263313	1
154700	21.318255	2
154900	21.373267	0
155100	21.428351	2
155300	21.483506	0
155500	21.538731	2
155700	21.594028	0
155900	21.649395	1
156100	21.704833	1
156300	21.760343	0
156500	21.815923	1
156700	21.871574	1
156900	21.927295	2
157100	21.983088	1
157300	22.038952	0
157500	22.094886	2
157700	22.150891	2
157900	22.206968	2
158100	22.263115	1
158300	22.319333	2
158500	22.375622	2
158700	22.431982	3
158900	22.488412	0
159100	22.544914	0
159300	22.601486	0
159500	22.658130	0
159700	22.714844	1
159900	22.771629	5
160100	22.828485	3
160300	22.885412	64
160500	22.942410	758
160700	22.999479	1327956
160900	23.056618	4054
161100	23.113829	2244
161300	23.171110	1607
161500	23.228462	1145
161700	23.285886	848
161900	23.343380	616
162100	23.400945	451
162300	23.458580	368
162500	23.516287	272
162700	23.574065	242
162900	23.631913	187
163100	23.689833	176
163300	23.747823	121
163500	23.805884	138
163700	23.864016	98
163900	23.922219	94
164100	23.980493	973
164300	24.038838	82
164500	24.097253	62
164700	24.155740	51
164900	24.214297	56
165100	24.272926	42
165300	24.331625	35
165500	24.390395	31
165700	24.449236	22
165900	24.508148	22
166100	24.567130	28
166300	24.626184	24
166500	24.685309	25
166700	24.744504	27
166900	24.803770	14
167100	24.863108	14
167300	24.922516	11
167500	24.981995	728
167700	25.041544	51
167900	25.101165	6
168100	25.160857	14
168300	25.220619	13
168500	25.280453	10
168700	25.340357	11
168900	25.400332	8
169100	25.460379	13
169300	25.520496	8
169500	25.580683	5
169700	25.640942	6
169900	25.701272	3
170100	25.761672	7
170300	25.822144	7
170500	25.882686	7
170700	25.943299	143
170900	26.003984	5272
171100	26.064739	15
171300	26.125565	8
171500	26.186461	1
171700	26.247429	3
171900	26.308468	2
172100	26.369577	5
172300	26.430757	5
172500	26.492009	5
172700	26.553331	2
172900	26.614724	1
173100	26.676188	1
173300	26.737723	2
173500	26.799328	4
173700	26.861005	3
173900	26.922752	41
174100	26.984571	4203
174300	27.046460	47878
174500	27.108420	31
174700	27.170451	14
174900	27.232553	11
175100	27.294726	11
175300	27.356970	6
175500	27.419284	8
175700	27.481670	6
175900	27.544126	7
176100	27.606653	8
176300	27.669252	7
176500	27.731921	3
176700	27.794661	6
176900	27.857471	3
177100	27.920353	47
177300	27.983306	5253
177500	28.046329	9641
177700	28.109424	5
177900	28.172589	8
178100	28.235825	4
178300	28.299132	5
178500	28.362510	4
178700	28.425959	4
178900	28.489479	1
179100	28.553069	3
179300	28.616731	6
179500	28.680463	1
179700	28.744267	3
179900	28.808141	6
180100	28.872086	9
180300	28.936102	609
180500	29.000189	26877
180700	29.064346	55271
180900	29.128575	50
181100	29.192875	40
181300	29.257245	22
181500	29.321686	18
181700	29.386199	7
181900	29.450782	11
182100	29.515436	6
182300	29.580160	6
182500	29.644956	20
182700	29.709823	60
182900	29.774760	29
183100	29.839769	59
183300	29.904848	11
183500	29.969998	551
183700	30.035220	4778
183900	30.100512	26
184100	30.165874	9
184300	30.231308	9
184500	30.296813	5
184700	30.362388	3
184900	30.428035	5
185100	30.493752	3
185300	30.559540	6
185500	30.625400	4
185700	30.691330	5
185900	30.757331	3
186100	30.823402	6
186300	30.889545	15
186500	30.955759	492
186700	31.022043	95288
186900	31.088398	120
187100	31.154825	39
187300	31.221322	40
187500	31.287890	12
187700	31.354529	15
187900	31.421239	10
188100	31.488019	32
188300	31.554871	16
188500	31.621793	6
188700	31.688787	8
188900	31.755851	5
189100	31.822986	6
189300	31.890192	5
189500	31.957469	83
189700	32.024817	2154
189900	32.092236	7
190100	32.159725	5
190300	32.227286	2
190500	32.294917	2
190700	32.362619	2
190900	32.430392	6
191100	32.498237	1
191300	32.566151	2
191500	32.634137	0
191700	32.702194	0
191900	32.770322	2
192100	32.838520	1
192300	32.906790	2
192500	32.975130	105
192700	33.043541	2850
192900	33.112023	4
193100	33.180576	3
193300	33.249200	1
193500	33.317895	6
193700	33.386660	4
193900	33.455497	0
194100	33.524404	1
194300	33.593383	6
194500	33.662432	2
194700	33.731552	2
194900	33.800743	1
195100	33.870005	0
195300	33.939337	1
195500	34.008741	49
195700	34.078216	5
195900	34.147761	3
196100	34.217377	1
196300	34.287064	1
196500	34.356823	2
196700	34.426652	2
196900	34.496551	1
197100	34.566522	0
197300	34.636564	1
197500	34.706676	1
197700	34.776860	0
197900	34.847114	1
198100	34.917439	3
198300	34.987836	171
198500	35.058303	8
198700	35.128840	2
198900	35.199449	1
199100	35.270129	5
199300	35.340879	5
199500	35.411701	3
199700	35.482593	1
199900	35.553556	2
200100	35.624591	3
200300	35.695696	4
200500	35.766871	1
200700	35.838118	2
200900	35.909436	2
201100	35.980825	302
201300	36.052284	7
201500	36.123814	3
201700	36.195416	2
201900	36.267088	1
202100	36.338831	0
202300	36.410645	1
202500	36.482529	0
202700	36.554485	3
202900	36.626512	1
203100	36.698609	2
203300	36.770778	4
203500	36.843017	4
203700	36.915327	111
203900	36.987708	1600
204100	37.060160	24
204300	37.132683	2
204500	37.205277	1
204700	37.277941	1
204900	37.350677	2
205100	37.423483	3
205300	37.496360	2
205500	37.569308	2
205700	37.642328	4
205900	37.715417	2
206100	37.788578	1
206300	37.861810	4
206500	37.935113	65
206700	38.008486	3369
206900	38.081931	10
207100	38.155446	5
207300	38.229032	5
207500	38.302689	3
207700	38.376417	6
