# Binning: 200 channels
# Deadtime Correction: on
Channel	m/z	Intensity
100	0.000244	0
300	0.000467	0
500	0.000763	0
700	0.001131	0
900	0.001570	0
1100	0.002082	0
1300	0.002665	0
1500	0.003321	0
1700	0.004049	0
1900	0.004848	0
2100	0.005720	0
2300	0.006664	0
2500	0.007680	0
2700	0.008768	0
2900	0.009927	0
3100	0.011159	0
3300	0.012463	0
3500	0.013839	0
3700	0.015287	0
3900	0.016807	0
4100	0.018399	0
4300	0.020063	0
4500	0.021799	0
4700	0.023607	0
4900	0.025487	0
5100	0.027440	0
5300	0.029464	0
5500	0.031560	0
5700	0.033728	0
5900	0.035968	0
6100	0.038281	0
6300	0.040665	0
6500	0.043121	0
6700	0.045650	0
6900	0.048250	0
7100	0.050923	0
7300	0.053667	0
7500	0.056483	0
7700	0.059372	0
7900	0.062332	0
8100	0.065365	0
8300	0.068470	0
8500	0.071646	0
8700	0.074895	0
8900	0.078216	0
9100	0.081608	0
9300	0.085073	0
9500	0.088610	0
9700	0.092218	0
9900	0.095899	0
10100	0.099652	0
10300	0.103477	0
10500	0.107374	0
10700	0.111343	0
10900	0.115384	0
11100	0.119497	0
11300	0.123682	0
11500	0.127939	0
11700	0.132268	0
11900	0.136669	0
12100	0.141142	0
12300	0.145687	0
12500	0.150304	0
12700	0.154993	0
12900	0.159755	0
13100	0.164588	0
13300	0.169493	0
13500	0.174470	0
13700	0.179520	0
13900	0.184641	0
14100	0.189834	0
14300	0.195100	0
14500	0.200437	0
14700	0.205847	0
14900	0.211328	0
15100	0.216882	0
15300	0.222507	0
15500	0.228205	0
15700	0.233974	0
15900	0.239816	0
16100	0.245730	0
16300	0.251715	0
16500	0.257773	0
16700	0.263903	0
16900	0.270104	0
17100	0.276378	0
17300	0.282724	0
17500	0.289142	0
17700	0.295632	0
17900	0.302194	0
18100	0.308828	0
18300	0.315534	0
18500	0.322311	0
18700	0.329161	0
18900	0.336084	0
19100	0.343078	0
19300	0.350144	0
19500	0.357282	0
19700	0.364492	0
19900	0.371774	0
20100	0.379128	0
20300	0.386554	0
20500	0.394053	0
20700	0.401623	0
20900	0.409265	0
21100	0.416980	0
21300	0.424766	0
21500	0.432624	0
21700	0.440555	0
21900	0.448557	0
22100	0.456632	0
22300	0.464778	0
22500	0.472997	0
22700	0.481287	0
22900	0.489650	0
23100	0.498084	0
23300	0.506591	0
23500	0.515170	0
23700	0.523820	0
23900	0.532543	0
24100	0.541338	0
24300	0.550204	0
24500	0.559143	0
24700	0.568154	0
24900	0.577237	0
25100	0.586392	0
25300	0.595619	0
25500	0.604918	0
25700	0.614289	0
25900	0.623732	0
26100	0.633247	0
26300	0.642834	0
26500	0.652493	0
26700	0.662224	0
26900	0.672027	0
27100	0.681902	0
27300	0.691849	0
27500	0.701868	0
27700	0.711960	0
27900	0.722123	0
28100	0.732358	0
28300	0.742665	0
28500	0.753045	0
28700	0.763496	0
28900	0.774020	0
29100	0.784615	0
29300	0.795282	0
29500	0.806022	0
29700	0.816833	0
29900	0.827717	0
30100	0.838672	0
30300	0.849700	0
30500	0.860800	0
30700	0.871971	0
30900	0.883215	0
31100	0.894531	0
31300	0.905918	0
31500	0.917378	0
31700	0.928910	0
31900	0.940514	0
32100	0.952189	0
32300	0.963937	0
32500	0.975757	0
32700	0.987649	0
32900	0.999613	1
33100	1.011649	4683
33300	1.023757	2
33500	1.035937	1
33700	1.048189	0
33900	1.060513	0
34100	1.072909	0
34300	1.085377	0
34500	1.097917	1
34700	1.110530	0
34900	1.123214	0
35100	1.135970	0
35300	1.148798	0
35500	1.161699	0
35700	1.174671	0
35900	1.187715	0
36100	1.200832	0
36300	1.214020	0
36500	1.227280	0
36700	1.240613	0
36900	1.254017	0
37100	1.267494	0
37300	1.281042	0
37500	1.294663	0
37700	1.308355	0
37900	1.322120	0
38100	1.335957	0
38300	1.349865	0
38500	1.363846	0
38700	1.377899	0
38900	1.392024	0
39100	1.406220	0
39300	1.420489	0
39500	1.434830	0
39700	1.449243	0
39900	1.463728	0
40100	1.478285	0
40300	1.492913	0
40500	1.507614	0
40700	1.522387	0
40900	1.537232	0
41100	1.552150	0
41300	1.567139	0
41500	1.582200	0
41700	1.597333	0
41900	1.612538	0
42100	1.627815	0
42300	1.643164	0
42500	1.658586	0
42700	1.674079	1
42900	1.689644	0
43100	1.705281	0
43300	1.720991	0
43500	1.736772	0
43700	1.752626	0
43900	1.768551	0
44100	1.784548	0
44300	1.800618	0
44500	1.816759	0
44700	1.832973	0
44900	1.849259	0
45100	1.865616	0
45300	1.882046	0
45500	1.898547	0
45700	1.915121	0
45900	1.931767	0
46100	1.948485	0
46300	1.965274	0
46500	1.982136	0
46700	1.999070	0
46900	2.016076	189
47100	2.033154	0
47300	2.050303	0
47500	2.067525	0
47700	2.084819	0
47900	2.102185	0
48100	2.119623	0
48300	2.137133	0
48500	2.154715	0
48700	2.172369	0
48900	2.190096	0
49100	2.207894	0
49300	2.225764	0
49500	2.243706	0
49700	2.261720	0
49900	2.279806	0
50100	2.297965	0
50300	2.316195	0
50500	2.334497	0
50700	2.352872	0
50900	2.371318	0
51100	2.389837	0
51300	2.408427	0
51500	2.427089	0
51700	2.445824	0
51900	2.464630	0
52100	2.483509	0
52300	2.502460	0
52500	2.521482	0
52700	2.540577	0
52900	2.559743	0
53100	2.578982	0
53300	2.598293	0
53500	2.617676	0
53700	2.637130	0
53900	2.656657	0
54100	2.676256	0
54300	2.695927	0
54500	2.715670	0
54700	2.735484	0
54900	2.755371	0
55100	2.775330	0
55300	2.795361	0
55500	2.815464	0
55700	2.835639	0
55900	2.855886	0
56100	2.876206	0
56300	2.896597	0
56500	2.917060	0
56700	2.937595	0
56900	2.958202	0
57100	2.978881	0
57300	2.999633	0
57500	3.020456	34
57700	3.041351	0
57900	3.062319	0
58100	3.083358	0
58300	3.104469	0
58500	3.125653	0
58700	3.146908	0
58900	3.168236	0
59100	3.189635	0
59300	3.211107	0
59500	3.232650	0
59700	3.254266	0
59900	3.275953	0
60100	3.297713	0
60300	3.319545	0
60500	3.341448	0
60700	3.363424	0
60900	3.385472	0
61100	3.407592	0
61300	3.429783	0
61500	3.452047	0
61700	3.474383	0
61900	3.496791	0
62100	3.519271	0
62300	3.541823	0
62500	3.564447	0
62700	3.587143	0
62900	3.609911	0
63100	3.632751	0
63300	3.655663	0
63500	3.678647	0
63700	3.701703	0
63900	3.724831	0
64100	3.748031	0
64300	3.771303	0
64500	3.794648	0
64700	3.818064	0
64900	3.841552	0
65100	3.865113	0
65300	3.888745	0
65500	3.912449	0
65700	3.936226	0
65900	3.960074	0
66100	3.983995	0
66300	4.007987	0
66500	4.032051	0
66700	4.056188	0
66900	4.080397	0
67100	4.104677	0
67300	4.129030	0
67500	4.153454	0
67700	4.177951	0
67900	4.202520	0
68100	4.227160	0
68300	4.251873	0
68500	4.276658	0
68700	4.301515	0
68900	4.326444	0
69100	4.351444	0
69300	4.376517	0
69500	4.401662	0
69700	4.426879	0
69900	4.452168	0
70100	4.477529	0
70300	4.502962	0
70500	4.528467	0
70700	4.554044	0
70900	4.579693	0
71100	4.605415	0
71300	4.631208	0
71500	4.657073	0
71700	4.683010	0
71900	4.709019	0
72100	4.735101	0
72300	4.761254	0
72500	4.787479	0
72700	4.813777	0
72900	4.840146	0
73100	4.866587	0
73300	4.893101	0
73500	4.919686	0
73700	4.946344	0
73900	4.973073	0
74100	4.999875	0
74300	5.026748	0
74500	5.053694	0
74700	5.080711	1
74900	5.107801	0
75100	5.134963	0
75300	5.162196	0
75500	5.189502	0
75700	5.216880	0
75900	5.244330	0
76100	5.271852	0
76300	5.299445	0
76500	5.327111	0
76700	5.354849	0
76900	5.382659	0
77100	5.410541	0
77300	5.438495	0
77500	5.466521	0
77700	5.494619	0
77900	5.522789	0
78100	5.551031	0
78300	5.579345	0
78500	5.607731	0
78700	5.636190	0
78900	5.664720	0
79100	5.693322	0
79300	5.721996	0
79500	5.750742	0
79700	5.779561	0
79900	5.808451	0
80100	5.837413	0
80300	5.866448	0
80500	5.895554	0
80700	5.924733	0
80900	5.953983	0
81100	5.983306	0
81300	6.012700	54
81500	6.042167	1
81700	6.071705	0
81900	6.101316	0
82100	6.130998	0
82300	6.160753	0
82500	6.190580	0
82700	6.220478	0
82900	6.250449	0
83100	6.280492	0
83300	6.310607	0
83500	6.340794	0
83700	6.371052	0
83900	6.401383	0
84100	6.431786	0
84300	6.462261	0
84500	6.492808	0
84700	6.523427	0
84900	6.554118	0
85100	6.584881	0
85300	6.615716	0
85500	6.646623	0
85700	6.677602	0
85900	6.708653	0
86100	6.739777	0
86300	6.770972	0
86500	6.802239	0
86700	6.833578	0
86900	6.864990	0
87100	6.896473	0
87300	6.928028	0
87500	6.959656	0
87700	6.991355	0
87900	7.023126	671
88100	7.054970	6
88300	7.086885	0
88500	7.118873	0
88700	7.150932	2
88900	7.183064	0
89100	7.215267	0
89300	7.247543	0
89500	7.279891	0
89700	7.312310	0
89900	7.344802	0
90100	7.377366	0
90300	7.410001	0
90500	7.442709	0
90700	7.475489	0
90900	7.508341	0
91100	7.541265	0
91300	7.574261	0
91500	7.607328	0
91700	7.640468	0
91900	7.673680	0
92100	7.706964	0
92300	7.740320	0
92500	7.773748	0
92700	7.807248	0
92900	7.840820	0
93100	7.874465	0
93300	7.908181	0
93500	7.941969	0
93700	7.975829	0
93900	8.009761	0
94100	8.043766	0
94300	8.077842	0
94500	8.111990	0
94700	8.146211	0
94900	8.180503	0
95100	8.214867	0
95300	8.249304	0
95500	8.283812	0
95700	8.318393	0
95900	8.353045	0
96100	8.387770	0
96300	8.422566	0
96500	8.457435	0
96700	8.492375	0
96900	8.527388	0
97100	8.562473	0
97300	8.597629	0
97500	8.632858	0
97700	8.668159	0
97900	8.703532	0
98100	8.738976	0
98300	8.774493	0
98500	8.810082	0
98700	8.845743	0
98900	8.881476	0
99100	8.917281	0
99300	8.953158	0
99500	8.989107	0
99700	9.025128	0
99900	9.061221	0
100100	9.097386	0
100300	9.133623	0
100500	9.169932	0
100700	9.206313	0
100900	9.242767	0
101100	9.279292	0
101300	9.315889	0
101500	9.352558	0
101700	9.389300	0
101900	9.426113	0
102100	9.462998	0
102300	9.499956	0
102500	9.536985	0
102700	9.574086	0
102900	9.611260	0
103100	9.648505	0
103300	9.685823	0
103500	9.723212	0
103700	9.760674	0
103900	9.798207	0
104100	9.835813	0
104300	9.873491	0
104500	9.911240	0
104700	9.949062	0
104900	9.986956	0
105100	10.024922	8
105300	10.062959	0
105500	10.101069	0
105700	10.139251	0
105900	10.177505	0
106100	10.215831	0
106300	10.254229	0
106500	10.292699	0
106700	10.331241	0
106900	10.369855	0
107100	10.408541	0
107300	10.447299	0
107500	10.486129	0
107700	10.525031	0
107900	10.564005	0
108100	10.603051	0
108300	10.642169	0
108500	10.681360	0
108700	10.720622	0
108900	10.759956	0
109100	10.799362	0
109300	10.838841	0
109500	10.878391	0
109700	10.918013	0
109900	10.957708	0
110100	10.997474	49
110300	11.037313	0
110500	11.077223	0
110700	11.117206	0
110900	11.157260	0
111100	11.197387	0
111300	11.237585	0
111500	11.277856	0
111700	11.318199	0
111900	11.358613	0
112100	11.399100	0
112300	11.439659	0
112500	11.480290	0
112700	11.520992	0
112900	11.561767	0
113100	11.602614	0
113300	11.643533	0
113500	11.684524	0
113700	11.725587	0
113900	11.766722	0
114100	11.807929	0
114300	11.849208	0
114500	11.890559	0
114700	11.931982	0
114900	11.973477	15
115100	12.015044	2548
115300	12.056683	1
115500	12.098394	1
115700	12.140177	0
115900	12.182033	1
116100	12.223960	0
116300	12.265959	0
116500	12.308030	0
116700	12.350174	0
116900	12.392389	0
117100	12.434677	0
117300	12.477036	1
117500	12.519467	0
117700	12.561971	0
117900	12.604546	0
118100	12.647194	0
118300	12.689913	0
118500	12.732705	0
118700	12.775569	0
118900	12.818504	0
119100	12.861512	0
119300	12.904592	0
119500	12.947743	0
119700	12.990967	1597
119900	13.034263	5
120100	13.077631	1
120300	13.121070	0
120500	13.164582	1
120700	13.208166	0
120900	13.251822	0
121100	13.295550	0
121300	13.339350	0
121500	13.383222	0
121700	13.427166	0
121900	13.471182	0
122100	13.515270	0
122300	13.559430	0
122500	13.603662	0
122700	13.647966	0
122900	13.692343	0
123100	13.736791	1
123300	13.781311	0
123500	13.825903	0
123700	13.870567	0
123900	13.915304	0
124100	13.960112	1
124300	14.004993	1962
124500	14.049945	3
124700	14.094969	0
124900	14.140066	0
125100	14.185234	0
125300	14.230475	0
125500	14.275787	1
125700	14.321172	0
125900	14.366628	0
126100	14.412157	0
126300	14.457758	0
126500	14.503430	0
126700	14.549175	0
126900	14.594992	0
127100	14.640880	0
127300	14.686841	0
127500	14.732874	0
127700	14.778979	0
127900	14.825156	0
128100	14.871405	0
128300	14.917726	1
128500	14.964118	0
128700	15.010583	4786
128900	15.057120	16
129100	15.103729	0
129300	15.150410	0
129500	15.197164	0
129700	15.243989	1
129900	15.290886	1
130100	15.337855	0
130300	15.384896	1
130500	15.432009	0
130700	15.479195	0
130900	15.526452	0
131100	15.573781	0
131300	15.621182	0
131500	15.668656	1
131700	15.716201	0
131900	15.763819	0
132100	15.811508	0
132300	15.859269	0
132500	15.907103	0
132700	15.955008	0
132900	16.002986	110
133100	16.051035	29
133300	16.099157	0
133500	16.147351	0
133700	16.195616	0
133900	16.243954	1
134100	16.292364	0
134300	16.340845	0
134500	16.389399	0
134700	16.438025	0
134900	16.486723	0
135100	16.535493	0
135300	16.584334	0
135500	16.633248	0
135700	16.682234	0
135900	16.731292	0
136100	16.780422	0
136300	16.829624	0
136500	16.878898	0
136700	16.928244	0
136900	16.977662	39
137100	17.027152	51
137300	17.076715	0
137500	17.126349	0
137700	17.176055	0
137900	17.225833	0
138100	17.275683	0
138300	17.325606	0
138500	17.375600	0
138700	17.425666	0
138900	17.475805	0
139100	17.526015	0
139300	17.576297	0
139500	17.626652	0
139700	17.677078	0
139900	17.727577	0
140100	17.778147	0
140300	17.828790	0
140500	17.879504	0
140700	17.930291	0
140900	17.981150	2
141100	18.032080	728
141300	18.083083	7
141500	18.134158	1
141700	18.185304	0
141900	18.236523	0
142100	18.287814	0
142300	18.339177	0
142500	18.390612	0
142700	18.442118	0
142900	18.493697	0
143100	18.545348	0
143300	18.597071	0
143500	18.648866	0
143700	18.700733	0
143900	18.752672	0
144100	18.804683	0
144300	18.856766	0
144500	18.908921	0
144700	18.961149	1
144900	19.013448	193
145100	19.065819	5
145300	19.118262	0
145500	19.170777	0
145700	19.223365	0
145900	19.276024	0
146100	19.328755	1
146300	19.381559	0
146500	19.434434	0
146700	19.487381	0
146900	19.540401	0
147100	19.593492	0
147300	19.646656	0
147500	19.699891	0
147700	19.753199	0
147900	19.806579	0
148100	19.860030	0
148300	19.913554	0
148500	19.967149	6
148700	20.020817	0
148900	20.074557	0
149100	20.128369	1
149300	20.182252	0
149500	20.236208	0
149700	20.290236	0
149900	20.344336	0
150100	20.398508	1
150300	20.452752	0
150500	20.507067	0
150700	20.561455	0
150900	20.615915	0
151100	20.670447	0
151300	20.725051	0
151500	20.779728	0
151700	20.834476	0
151900	20.889296	0
152100	20.944188	0
152300	20.999152	2
152500	21.054188	0
152700	21.109296	0
152900	21.164477	0
153100	21.219729	0
153300	21.275053	1
153500	21.330450	1
153700	21.385918	0
153900	21.441458	0
154100	21.497071	1
154300	21.552755	0
154500	21.608512	0
154700	21.664340	0
154900	21.720241	0
155100	21.776213	0
155300	21.832258	0
155500	21.888375	0
155700	21.944563	0
155900	22.000824	0
156100	22.057157	0
156300	22.113561	1
156500	22.170038	0
156700	22.226587	0
156900	22.283208	0
157100	22.339900	0
157300	22.396665	3
157500	22.453502	0
157700	22.510411	0
157900	22.567392	0
158100	22.624445	0
158300	22.681570	0
158500	22.738767	2
158700	22.796036	1
158900	22.853377	8
159100	22.910790	46
159300	22.968275	592728
159500	23.025832	69034
159700	23.083462	2915
159900	23.141163	1465
160100	23.198936	847
160300	23.256781	620
160500	23.314699	410
160700	23.372688	290
160900	23.430749	216
161100	23.488883	176
161300	23.547088	137
161500	23.605365	103
161700	23.663715	80
161900	23.722136	74
162100	23.780630	58
162300	23.839195	47
162500	23.897833	36
162700	23.956543	189
162900	24.015324	456
163100	24.074178	31
163300	24.133103	22
163500	24.192101	16
163700	24.251171	24
163900	24.310313	11
164100	24.369526	19
164300	24.428812	8
164500	24.488170	10
164700	24.547600	10
164900	24.607102	10
165100	24.666676	10
165300	24.726322	10
165500	24.786040	7
165700	24.845830	7
165900	24.905692	3
166100	24.965626	45
166300	25.025632	590
166500	25.085710	6
166700	25.145860	1
166900	25.206082	3
167100	25.266376	2
167300	25.326743	6
167500	25.387181	5
167700	25.447691	2
167900	25.508273	1
168100	25.568928	4
168300	25.629654	2
168500	25.690452	2
168700	25.751323	0
168900	25.812265	4
169100	25.873280	3
169300	25.934366	35
169500	25.995525	2771
169700	26.056755	14
169900	26.118058	2
170100	26.179432	2
170300	26.240879	1
170500	26.302398	2
170700	26.363988	2
170900	26.425651	0
171100	26.487386	2
171300	26.549193	2
171500	26.611071	2
171700	26.673022	1
171900	26.735045	4
172100	26.797140	2
172300	26.859307	0
172500	26.921546	8
172700	26.983857	1441
172900	27.046240	14983
173100	27.108695	12
173300	27.171222	6
173500	27.233821	1
173700	27.296492	3
173900	27.359235	2
174100	27.422050	5
174300	27.484937	1
174500	27.547896	0
174700	27.610928	1
174900	27.674031	3
175100	27.737206	0
175300	27.800453	1
175500	27.863773	3
175700	27.927164	5
175900	27.990628	2864
176100	28.054163	2116
176300	28.117770	4
176500	28.181450	4
176700	28.245201	2
176900	28.309025	2
177100	28.372920	2
177300	28.436888	1
177500	28.500928	0
177700	28.565039	0
177900	28.629223	1
178100	28.693479	0
178300	28.757806	0
178500	28.822206	1
178700	28.886678	2
178900	28.951222	257
179100	29.015837	20110
179300	29.080525	419
179500	29.145285	15
179700	29.210117	6
179900	29.275021	4
180100	29.339997	5
180300	29.405045	6
180500	29.470165	1
180700	29.535357	2
180900	29.600621	1
181100	29.665957	0
181300	29.731365	1
181500	29.796845	3
181700	29.862397	2
181900	29.928022	3
182100	29.993718	384
182300	30.059486	1884
182500	30.125326	4
182700	30.191239	0
182900	30.257223	1
183100	30.323279	3
183300	30.389408	2
183500	30.455608	0
183700	30.521881	0
183900	30.588225	0
184100	30.654642	0
184300	30.721130	0
184500	30.787691	0
184700	30.854323	2
184900	30.921028	1
185100	30.987805	1308
185300	31.054653	347
185500	31.121574	1
185700	31.188567	1
185900	31.255631	15
186100	31.322768	2
186300	31.389977	1
186500	31.457258	1
186700	31.524611	3
186900	31.592036	5
187100	31.659532	1
187300	31.727101	0
187500	31.794742	1
187700	31.862455	1
187900	31.930240	0
188100	31.998097	39
188300	32.066026	75
188500	32.134028	0
188700	32.202101	0
188900	32.270246	0
189100	32.338463	2
189300	32.406752	1
189500	32.475113	0
189700	32.543547	2
189900	32.612052	1
190100	32.680629	0
190300	32.749279	1
190500	32.818000	0
190700	32.886793	0
190900	32.955659	5
191100	33.024596	27
191300	33.093606	0
191500	33.162687	1
191700	33.231841	0
191900	33.301066	0
192100	33.370364	2
192300	33.439734	2
192500	33.509175	0
192700	33.578689	0
192900	33.648275	1
193100	33.717932	0
193300	33.787662	1
193500	33.857464	0
193700	33.927338	0
193900	33.997283	2
194100	34.067301	2
194300	34.137391	0
194500	34.207553	1
194700	34.277787	0
194900	34.348093	0
195100	34.418471	0
195300	34.488921	0
195500	34.559443	0
195700	34.630037	0
195900	34.700703	0
196100	34.771441	2
196300	34.842252	0
196500	34.913134	1
196700	34.984088	66
196900	35.055114	1
197100	35.126212	0
197300	35.197383	1
197500	35.268625	1
197700	35.339939	0
197900	35.411326	0
198100	35.482784	0
198300	35.554315	0
198500	35.625917	0
198700	35.697592	1
198900	35.769338	0
199100	35.841157	0
199300	35.913047	0
199500	35.985010	176
199700	36.057044	1
199900	36.129151	0
200100	36.201330	0
200300	36.273580	2
200500	36.345903	0
200700	36.418298	0
200900	36.490765	0
201100	36.563304	0
201300	36.635914	0
201500	36.708597	0
201700	36.781352	0
201900	36.854179	0
202100	36.927078	60
202300	37.000049	1033
202500	37.073092	2
202700	37.146207	0
202900	37.219394	1
203100	37.292653	3
203300	37.365984	1
203500	37.439387	0
203700	37.512863	0
203900	37.586410	1
204100	37.660029	1
204300	37.733720	0
204500	37.807484	0
204700	37.881319	2
204900	37.955226	98
205100	38.029206	1699
205300	38.103257	1
205500	38.177380	5
205700	38.251576	2
205900	38.325843	3
206100	38.400183	0
206300	38.474594	0
206500	38.549078	0
206700	38.623633	2
206900	38.698261	1
207100	38.772961	1
207300	38.847732	12
207500	38.922576	13996
207700	38.997492	48572
207900	39.072479	1256
208100	39.147539	544
208300	39.222671	335
