# Binning: 200 channels
# Deadtime Correction: on
Channel	m/z	Intensity
100	0.000243	0
300	0.000469	0
500	0.000768	0
700	0.001141	0
900	0.001587	0
1100	0.002106	0
1300	0.002699	0
1500	0.003365	0
1700	0.004104	0
1900	0.004917	0
2100	0.005803	0
2300	0.006762	0
2500	0.007795	0
2700	0.008902	0
2900	0.010081	0
3100	0.011334	0
3300	0.012661	0
3500	0.014061	0
3700	0.015534	0
3900	0.017081	0
4100	0.018701	0
4300	0.020394	0
4500	0.022161	0
4700	0.024001	0
4900	0.025914	0
5100	0.027901	0
5300	0.029961	0
5500	0.032095	0
5700	0.034302	0
5900	0.036583	0
6100	0.038936	0
6300	0.041364	0
6500	0.043864	0
6700	0.046438	0
6900	0.049085	0
7100	0.051806	0
7300	0.054600	0
7500	0.057468	0
7700	0.060409	0
7900	0.063423	0
8100	0.066510	0
8300	0.069671	0
8500	0.072906	0
8700	0.076214	0
8900	0.079595	0
9100	0.083049	0
9300	0.086577	0
9500	0.090179	0
9700	0.093853	0
9900	0.097601	0
10100	0.101423	0
10300	0.105318	0
10500	0.109286	0
10700	0.113327	0
10900	0.117442	0
11100	0.121631	0
11300	0.125892	0
11500	0.130228	0
11700	0.134636	0
11900	0.139118	0
12100	0.143673	0
12300	0.148302	0
12500	0.153004	0
12700	0.157779	0
12900	0.162628	0
13100	0.167550	0
13300	0.172546	0
13500	0.177615	0
13700	0.182757	0
13900	0.187973	0
14100	0.193262	0
14300	0.198624	0
14500	0.204060	0
14700	0.209570	0
14900	0.215152	0
15100	0.220808	0
15300	0.226538	0
15500	0.232340	0
15700	0.238217	0
15900	0.244166	0
16100	0.250189	0
16300	0.256285	0
16500	0.262455	0
16700	0.268698	0
16900	0.275014	0
17100	0.281404	0
17300	0.287868	0
17500	0.294404	0
17700	0.301014	0
17900	0.307697	0
18100	0.314454	0
18300	0.321284	0
18500	0.328188	0
18700	0.335165	0
18900	0.342215	0
19100	0.349339	0
19300	0.356536	0
19500	0.363806	0
19700	0.371150	0
19900	0.378567	0
20100	0.386058	0
20300	0.393622	0
20500	0.401259	0
20700	0.408970	0
20900	0.416754	0
21100	0.424611	0
21300	0.432542	0
21500	0.440546	0
21700	0.448624	0
21900	0.456775	0
22100	0.464999	0
22300	0.473297	0
22500	0.481668	0
22700	0.490113	0
22900	0.498631	0
23100	0.507222	0
23300	0.515887	0
23500	0.524625	0
23700	0.533436	0
23900	0.542321	0
24100	0.551279	0
24300	0.560311	0
24500	0.569416	0
24700	0.578594	0
24900	0.587846	0
25100	0.597171	0
25300	0.606569	0
25500	0.616041	0
25700	0.625586	0
25900	0.635205	0
26100	0.644897	0
26300	0.654663	0
26500	0.664501	0
26700	0.674414	0
26900	0.684399	0
27100	0.694458	0
27300	0.704590	0
27500	0.714796	0
27700	0.725075	0
27900	0.735428	0
28100	0.745853	0
28300	0.756353	0
28500	0.766925	0
28700	0.777571	0
28900	0.788291	0
29100	0.799083	0
29300	0.809950	0
29500	0.820889	0
29700	0.831902	0
29900	0.842988	0
30100	0.854148	0
30300	0.865381	0
30500	0.876687	0
30700	0.888067	0
30900	0.899520	0
31100	0.911047	0
31300	0.922647	0
31500	0.934320	0
31700	0.946067	0
31900	0.957887	0
32100	0.969781	0
32300	0.981748	1
32500	0.993788	0
32700	1.005901	3816
32900	1.018088	4
33100	1.030349	0
33300	1.042683	0
33500	1.055090	0
33700	1.067570	0
33900	1.080124	0
34100	1.092752	0
34300	1.105452	0
34500	1.118226	0
34700	1.131074	0
34900	1.143995	0
35100	1.156989	0
35300	1.170057	0
35500	1.183198	0
35700	1.196412	0
35900	1.209700	0
36100	1.223061	0
36300	1.236495	0
36500	1.250003	0
36700	1.263585	0
36900	1.277239	0
37100	1.290967	0
37300	1.304769	0
37500	1.318643	0
37700	1.332592	0
37900	1.346613	0
38100	1.360708	0
38300	1.374877	0
38500	1.389118	0
38700	1.403433	0
38900	1.417822	0
39100	1.432284	0
39300	1.446819	0
39500	1.461428	0
39700	1.476110	0
39900	1.490865	0
40100	1.505694	0
40300	1.520596	0
40500	1.535572	0
40700	1.550620	0
40900	1.565743	0
41100	1.580939	0
41300	1.596208	0
41500	1.611550	0
41700	1.626966	0
41900	1.642455	0
42100	1.658018	0
42300	1.673654	0
42500	1.689363	0
42700	1.705146	0
42900	1.721002	0
43100	1.736931	0
43300	1.752934	0
43500	1.769011	0
43700	1.785160	0
43900	1.801383	0
44100	1.817680	0
44300	1.834050	0
44500	1.850493	0
44700	1.867009	0
44900	1.883599	0
45100	1.900263	0
45300	1.916999	0
45500	1.933809	0
45700	1.950693	0
45900	1.967650	0
46100	1.984680	0
46300	2.001784	0
46500	2.018961	135
46700	2.036211	0
46900	2.053535	0
47100	2.070932	0
47300	2.088403	0
47500	2.105947	0
47700	2.123564	0
47900	2.141254	0
48100	2.159019	0
48300	2.176856	0
48500	2.194767	0
48700	2.212751	0
48900	2.230809	0
49100	2.248940	0
49300	2.267144	0
49500	2.285422	0
49700	2.303773	0
49900	2.322197	0
50100	2.340695	0
50300	2.359267	0
50500	2.377911	0
50700	2.396629	0
50900	2.415421	0
51100	2.434286	0
51300	2.453224	0
51500	2.472235	0
51700	2.491320	0
51900	2.510479	0
52100	2.529710	0
52300	2.549015	0
52500	2.568394	0
52700	2.587846	0
52900	2.607371	0
53100	2.626970	0
53300	2.646642	0
53500	2.666387	0
53700	2.686206	0
53900	2.706098	0
54100	2.726063	0
54300	2.746102	0
54500	2.766215	0
54700	2.786400	0
54900	2.806659	0
55100	2.826992	0
55300	2.847398	0
55500	2.867877	0
55700	2.888429	0
55900	2.909055	0
56100	2.929755	0
56300	2.950528	0
56500	2.971374	0
56700	2.992293	0
56900	3.013286	18
57100	3.034352	1
57300	3.055492	0
57500	3.076705	0
57700	3.097991	0
57900	3.119351	0
58100	3.140784	0
58300	3.162291	0
58500	3.183871	0
58700	3.205524	0
58900	3.227251	0
59100	3.249051	0
59300	3.270925	0
59500	3.292871	0
59700	3.314892	0
59900	3.336985	0
60100	3.359152	0
60300	3.381393	0
60500	3.403706	0
60700	3.426094	0
60900	3.448554	0
61100	3.471088	0
61300	3.493695	0
61500	3.516376	0
61700	3.539130	0
61900	3.561958	0
62100	3.584858	0
62300	3.607833	0
62500	3.630880	0
62700	3.654001	0
62900	3.677195	0
63100	3.700463	0
63300	3.723804	0
63500	3.747219	0
63700	3.770707	0
63900	3.794268	0
64100	3.817903	0
64300	3.841611	0
64500	3.865392	0
64700	3.889247	0
64900	3.913175	0
65100	3.937177	0
65300	3.961252	0
65500	3.985400	0
65700	4.009622	0
65900	4.033917	0
66100	4.058285	0
66300	4.082727	0
66500	4.107242	0
66700	4.131831	0
66900	4.156493	0
67100	4.181228	0
67300	4.206037	0
67500	4.230919	0
67700	4.255875	0
67900	4.280904	0
68100	4.306006	0
68300	4.331182	0
68500	4.356431	0
68700	4.381753	0
68900	4.407149	0
69100	4.432618	0
69300	4.458161	0
69500	4.483777	0
69700	4.509466	0
69900	4.535229	0
70100	4.561065	0
70300	4.586974	0
70500	4.612957	0
70700	4.639013	0
70900	4.665143	0
71100	4.691346	0
71300	4.717623	0
71500	4.743972	0
71700	4.770395	0
71900	4.796892	0
72100	4.823462	0
72300	4.850105	0
72500	4.876822	0
72700	4.903612	0
72900	4.930476	0
73100	4.957412	0
73300	4.984423	0
73500	5.011506	0
73700	5.038663	0
73900	5.065894	0
74100	5.093197	0
74300	5.120575	0
74500	5.148025	0
74700	5.175549	0
74900	5.203146	0
75100	5.230817	0
75300	5.258561	0
75500	5.286378	0
75700	5.314269	0
75900	5.342233	0
76100	5.370271	0
76300	5.398382	0
76500	5.426566	0
76700	5.454824	0
76900	5.483155	0
77100	5.511560	0
77300	5.540038	0
77500	5.568589	0
77700	5.597213	0
77900	5.625911	0
78100	5.654683	0
78300	5.683528	0
78500	5.712446	0
78700	5.741437	0
78900	5.770502	0
79100	5.799641	0
79300	5.828852	0
79500	5.858137	0
79700	5.887496	0
79900	5.916928	0
80100	5.946433	0
80300	5.976011	0
80500	6.005663	8
80700	6.035389	0
80900	6.065188	0
81100	6.095060	1
81300	6.125005	0
81500	6.155024	0
81700	6.185116	0
81900	6.215282	0
82100	6.245521	0
82300	6.275834	0
82500	6.306219	0
82700	6.336679	0
82900	6.367211	0
83100	6.397817	0
83300	6.428496	0
83500	6.459249	0
83700	6.490075	0
83900	6.520975	0
84100	6.551948	0
84300	6.582994	0
84500	6.614114	0
84700	6.645307	0
84900	6.676573	0
85100	6.707913	0
85300	6.739326	0
85500	6.770812	0
85700	6.802372	0
85900	6.834006	0
86100	6.865712	0
86300	6.897492	0
86500	6.929346	0
86700	6.961273	0
86900	6.993273	0
87100	7.025347	95
87300	7.057494	2
87500	7.089714	0
87700	7.122008	0
87900	7.154375	0
88100	7.186815	0
88300	7.219329	0
88500	7.251917	0
88700	7.284577	0
88900	7.317311	0
89100	7.350119	0
89300	7.382999	0
89500	7.415954	0
89700	7.448981	0
89900	7.482082	0
90100	7.515256	0
90300	7.548504	0
90500	7.581825	0
90700	7.615220	0
90900	7.648688	0
91100	7.682229	0
91300	7.715844	0
91500	7.749532	0
91700	7.783293	0
91900	7.817128	0
92100	7.851036	0
92300	7.885017	0
92500	7.919072	0
92700	7.953201	0
92900	7.987402	0
93100	8.021677	0
93300	8.056026	0
93500	8.090448	0
93700	8.124943	0
93900	8.159512	0
94100	8.194153	0
94300	8.228869	0
94500	8.263658	0
94700	8.298520	0
94900	8.333455	0
95100	8.368464	0
95300	8.403546	0
95500	8.438702	0
95700	8.473931	0
95900	8.509234	0
96100	8.544609	0
96300	8.580059	0
96500	8.615581	0
96700	8.651177	0
96900	8.686846	0
97100	8.722589	0
97300	8.758405	0
97500	8.794295	0
97700	8.830257	0
97900	8.866294	0
98100	8.902403	0
98300	8.938586	0
98500	8.974843	0
98700	9.011173	0
98900	9.047576	0
99100	9.084052	0
99300	9.120602	0
99500	9.157225	0
99700	9.193922	0
99900	9.230692	0
100100	9.267536	0
100300	9.304452	0
100500	9.341443	0
100700	9.378506	0
100900	9.415643	0
101100	9.452854	0
101300	9.490137	0
101500	9.527494	0
101700	9.564925	0
101900	9.602429	0
102100	9.640006	0
102300	9.677657	0
102500	9.715381	0
102700	9.753178	0
102900	9.791049	0
103100	9.828993	0
103300	9.867011	0
103500	9.905102	0
103700	9.943266	0
103900	9.981504	0
104100	10.019815	4
104300	10.058199	0
104500	10.096657	0
104700	10.135188	0
104900	10.173793	0
105100	10.212471	0
105300	10.251222	0
105500	10.290047	0
105700	10.328945	0
105900	10.367917	0
106100	10.406962	0
106300	10.446080	0
106500	10.485272	0
106700	10.524537	0
106900	10.563875	0
107100	10.603287	0
107300	10.642772	0
107500	10.682331	0
107700	10.721963	1
107900	10.761668	0
108100	10.801447	0
108300	10.841299	0
108500	10.881225	0
108700	10.921223	0
108900	10.961296	0
109100	11.001441	10
109300	11.041660	0
109500	11.081953	0
109700	11.122319	0
109900	11.162758	0
110100	11.203270	0
110300	11.243856	0
110500	11.284516	0
110700	11.325248	0
110900	11.366054	0
111100	11.406934	0
111300	11.447887	0
111500	11.488913	1
111700	11.530013	0
111900	11.571186	0
112100	11.612432	0
112300	11.653752	0
112500	11.695145	0
112700	11.736611	0
112900	11.778151	0
113100	11.819765	0
113300	11.861451	0
113500	11.903211	0
113700	11.945045	0
113900	11.986952	2793
114100	12.028932	6
114300	12.070985	0
114500	12.113112	0
114700	12.155313	0
114900	12.197586	0
115100	12.239933	0
115300	12.282354	0
115500	12.324848	0
115700	12.367415	0
115900	12.410056	0
116100	12.452770	0
116300	12.495557	0
116500	12.538418	0
116700	12.581352	0
116900	12.624360	0
117100	12.667441	0
117300	12.710595	0
117500	12.753823	0
117700	12.797124	0
117900	12.840498	0
118100	12.883946	0
118300	12.927467	0
118500	12.971062	0
118700	13.014730	1583
118900	13.058471	0
119100	13.102286	0
119300	13.146174	0
119500	13.190136	0
119700	13.234171	1
119900	13.278279	0
120100	13.322461	0
120300	13.366716	0
120500	13.411044	0
120700	13.455446	0
120900	13.499921	0
121100	13.544470	0
121300	13.589092	0
121500	13.633787	0
121700	13.678556	0
121900	13.723398	0
122100	13.768313	0
122300	13.813302	0
122500	13.858364	0
122700	13.903500	0
122900	13.948709	0
123100	13.993991	1455
123300	14.039347	241
123500	14.084776	0
123700	14.130279	0
123900	14.175855	0
124100	14.221504	0
124300	14.267227	0
124500	14.313023	1
124700	14.358892	0
124900	14.404835	0
125100	14.450851	0
125300	14.496941	0
125500	14.543104	0
125700	14.589340	0
125900	14.635650	0
126100	14.682033	1
126300	14.728490	0
126500	14.775020	0
126700	14.821623	0
126900	14.868300	0
127100	14.915050	0
127300	14.961873	0
127500	15.008770	3637
127700	15.055740	11
127900	15.102784	1
128100	15.149901	0
128300	15.197091	0
128500	15.244355	1
128700	15.291692	0
128900	15.339102	0
129100	15.386586	0
129300	15.434143	1
129500	15.481774	1
129700	15.529478	0
129900	15.577256	0
130100	15.625106	0
130300	15.673030	0
130500	15.721028	0
130700	15.769099	0
130900	15.817243	0
131100	15.865461	0
131300	15.913752	0
131500	15.962116	0
131700	16.010554	145
131900	16.059066	2
132100	16.107650	0
132300	16.156308	0
132500	16.205039	0
132700	16.253844	0
132900	16.302722	0
133100	16.351674	0
133300	16.400699	0
133500	16.449797	0
133700	16.498969	0
133900	16.548214	0
134100	16.597532	0
134300	16.646924	0
134500	16.696389	0
134700	16.745928	0
134900	16.795540	0
135100	16.845225	0
135300	16.894984	0
135500	16.944816	1
135700	16.994721	53
135900	17.044700	57
136100	17.094752	0
136300	17.144878	1
136500	17.195077	0
136700	17.245349	0
136900	17.295695	0
137100	17.346114	0
137300	17.396607	0
137500	17.447173	0
137700	17.497812	0
137900	17.548525	0
138100	17.599311	0
138300	17.650170	0
138500	17.701103	0
138700	17.752109	0
138900	17.803189	0
139100	17.854342	0
139300	17.905568	0
139500	17.956868	0
139700	18.008241	367
139900	18.059688	539
140100	18.111208	1
140300	18.162801	1
140500	18.214468	0
140700	18.266208	0
140900	18.318021	0
141100	18.369908	0
141300	18.421868	0
141500	18.473902	0
141700	18.526009	0
141900	18.578189	0
142100	18.630443	0
142300	18.682770	0
142500	18.735170	0
142700	18.787644	0
142900	18.840191	0
143100	18.892812	0
143300	18.945506	0
143500	18.998273	166
143700	19.051114	5
143900	19.104028	0
144100	19.157016	0
144300	19.210077	0
144500	19.263211	0
144700	19.316419	0
144900	19.369700	0
145100	19.423054	0
145300	19.476482	0
145500	19.529983	0
145700	19.583558	0
145900	19.637206	0
146100	19.690927	0
146300	19.744722	0
146500	19.798590	0
146700	19.852531	0
146900	19.906546	0
147100	19.960635	2
147300	20.014796	2
147500	20.069031	0
147700	20.123340	0
147900	20.177721	0
148100	20.232177	0
148300	20.286705	0
148500	20.341307	0
148700	20.395982	0
148900	20.450731	0
149100	20.505553	0
149300	20.560449	0
149500	20.615418	0
149700	20.670460	0
149900	20.725575	1
150100	20.780764	0
150300	20.836027	0
150500	20.891363	0
150700	20.946772	0
150900	21.002254	1
151100	21.057810	0
151300	21.113440	0
151500	21.169142	0
151700	21.224918	2
151900	21.280768	0
152100	21.336691	1
152300	21.392687	0
152500	21.448756	0
152700	21.504899	0
152900	21.561116	1
153100	21.617405	0
153300	21.673768	1
153500	21.730205	0
153700	21.786715	0
153900	21.843298	0
154100	21.899955	0
154300	21.956685	1
154500	22.013488	0
154700	22.070365	0
154900	22.127315	0
155100	22.184339	0
155300	22.241436	0
155500	22.298606	0
155700	22.355850	2
155900	22.413167	2
156100	22.470557	1
156300	22.528021	0
156500	22.585558	0
156700	22.643169	0
156900	22.700853	0
157100	22.758610	0
157300	22.816441	1
157500	22.874345	31
157700	22.932323	37
157900	22.990374	503358
158100	23.048498	4558
158300	23.106696	850
158500	23.164967	441
158700	23.223311	272
158900	23.281729	189
159100	23.340220	154
159300	23.398785	113
159500	23.457423	79
159700	23.516134	51
159900	23.574919	52
160100	23.633777	51
160300	23.692708	28
160500	23.751713	26
160700	23.810791	20
160900	23.869943	25
161100	23.929168	17
161300	23.988467	573
161500	24.047838	14
161700	24.107284	17
161900	24.166802	12
162100	24.226394	9
162300	24.286059	6
162500	24.345798	6
162700	24.405610	11
162900	24.465496	6
163100	24.525454	5
163300	24.585487	4
163500	24.645592	2
163700	24.705771	3
163900	24.766024	2
164100	24.826349	5
164300	24.886749	3
164500	24.947221	8
164700	25.007767	679
164900	25.068386	3
165100	25.129079	3
165300	25.189845	3
165500	25.250684	3
165700	25.311597	0
165900	25.372583	3
166100	25.433643	1
166300	25.494776	1
166500	25.555982	4
166700	25.617262	1
166900	25.678615	2
167100	25.740042	1
167300	25.801541	0
167500	25.863115	2
167700	25.924761	5
167900	25.986481	2010
168100	26.048275	362
168300	26.110142	1
168500	26.172082	0
168700	26.234095	0
168900	26.296182	0
169100	26.358342	4
169300	26.420576	1
169500	26.482883	1
169700	26.545264	0
169900	26.607718	0
170100	26.670245	0
170300	26.732845	0
170500	26.795519	2
170700	26.858267	1
170900	26.921088	3
171100	26.983982	1060
171300	27.046949	10603
171500	27.109990	10
171700	27.173104	7
171900	27.236292	3
172100	27.299553	2
172300	27.362887	3
172500	27.426295	2
172700	27.489776	2
172900	27.553331	1
173100	27.616959	1
173300	27.680660	0
173500	27.744435	1
173700	27.808283	1
173900	27.872205	1
174100	27.936200	21
174300	28.000268	3118
174500	28.064409	437
174700	28.128624	5
174900	28.192913	0
175100	28.257275	0
175300	28.321710	3
175500	28.386218	0
175700	28.450800	1
175900	28.515456	0
176100	28.580184	0
176300	28.644986	0
176500	28.709862	0
176700	28.774811	0
176900	28.839833	0
177100	28.904928	2
177300	28.970097	1621
177500	29.035340	10302
177700	29.100655	31
177900	29.166045	7
178100	29.231507	2
178300	29.297043	3
178500	29.362652	1
178700	29.428335	1
178900	29.494091	2
179100	29.559920	2
179300	29.625823	1
179500	29.691799	1
179700	29.757849	1
179900	29.823972	2
180100	29.890168	2
180300	29.956438	28
180500	30.022781	1865
180700	30.089198	8
180900	30.155687	4
181100	30.222251	0
181300	30.288887	2
181500	30.355597	1
181700	30.422381	1
181900	30.489237	1
182100	30.556168	1
182300	30.623171	4
182500	30.690248	0
182700	30.757398	1
182900	30.824622	0
183100	30.891919	1
183300	30.959290	23
183500	31.026733	1667
183700	31.094251	1
183900	31.161841	1
184100	31.229505	3
184300	31.297243	2
184500	31.365053	0
184700	31.432937	1
184900	31.500895	2
185100	31.568926	1
185300	31.637030	1
185500	31.705208	0
185700	31.773459	0
185900	31.841783	0
186100	31.910181	0
186300	31.978652	23
186500	32.047197	84
186700	32.115815	1
186900	32.184506	0
187100	32.253271	0
187300	32.322109	0
187500	32.391020	2
187700	32.460005	0
187900	32.529063	2
188100	32.598195	0
188300	32.667400	0
188500	32.736678	1
188700	32.806030	0
188900	32.875455	0
189100	32.944954	3
189300	33.014526	20
189500	33.084171	0
189700	33.153890	0
189900	33.223682	0
190100	33.293547	0
190300	33.363486	1
190500	33.433498	0
190700	33.503584	0
190900	33.573743	0
191100	33.643975	0
191300	33.714281	0
191500	33.784660	0
191700	33.855113	0
191900	33.925638	0
192100	33.996238	2
192300	34.066910	1
192500	34.137656	0
192700	34.208476	0
192900	34.279369	0
193100	34.350335	0
193300	34.421374	0
193500	34.492487	0
193700	34.563674	0
193900	34.634933	1
194100	34.706266	0
194300	34.777673	0
194500	34.849153	0
194700	34.920706	0
194900	34.992333	80
195100	35.064033	0
195300	35.135806	0
195500	35.207653	0
195700	35.279573	0
195900	35.351566	2
196100	35.423633	0
196300	35.495774	0
196500	35.567987	0
196700	35.640274	0
196900	35.712635	0
197100	35.785069	1
197300	35.857576	0
197500	35.930156	7
197700	36.002810	274
197900	36.075538	0
198100	36.148338	0
198300	36.221213	1
198500	36.294160	0
198700	36.367181	0
198900	36.440275	0
199100	36.513443	0
199300	36.586684	0
199500	36.659998	1
199700	36.733386	1
199900	36.806847	0
200100	36.880382	2
200300	36.953990	118
200500	37.027671	1279
200700	37.101426	1
200900	37.175254	0
201100	37.249155	1
201300	37.323130	0
201500	37.397178	0
201700	37.471300	0
201900	37.545495	0
202100	37.619763	4
202300	37.694105	3
202500	37.768520	0
202700	37.843009	0
202900	37.917571	5
203100	37.992206	1901
203300	38.066915	12
203500	38.141697	0
203700	38.216552	1
203900	38.291481	1
204100	38.366483	0
204300	38.441559	0
204500	38.516708	0
204700	38.591930	1
204900	38.667226	1
205100	38.742595	0
205300	38.818037	6
205500	38.893553	53
205700	38.969143	36080
205900	39.044805	9472
206100	39.120541	283
206300	39.196351	154
206500	39.272233	100
206700	39.348190	86
206900	39.424219	65
207100	39.500322	63
207300	39.576498	43
207500	39.652748	47
207700	39.729071	29
207900	39.805468	32
208100	39.881937	26
208300	39.958481	6009
