# Binning: 200 channels
# Deadtime Correction: on
Channel	m/z	Intensity
100	0.000275	0
300	0.000510	0
500	0.000817	0
700	0.001196	0
900	0.001647	0
1100	0.002170	0
1300	0.002765	0
1500	0.003432	0
1700	0.004171	0
1900	0.004982	0
2100	0.005866	0
2300	0.006821	0
2500	0.007848	0
2700	0.008948	0
2900	0.010119	0
3100	0.011363	0
3300	0.012678	0
3500	0.014066	0
3700	0.015525	0
3900	0.017057	0
4100	0.018661	0
4300	0.020336	0
4500	0.022084	0
4700	0.023904	0
4900	0.025796	0
5100	0.027759	0
5300	0.029795	0
5500	0.031903	0
5700	0.034083	0
5900	0.036335	0
6100	0.038659	0
6300	0.041055	0
6500	0.043523	0
6700	0.046063	0
6900	0.048676	0
7100	0.051360	0
7300	0.054116	0
7500	0.056944	0
7700	0.059845	0
7900	0.062817	0
8100	0.065861	0
8300	0.068978	0
8500	0.072166	0
8700	0.075427	0
8900	0.078759	0
9100	0.082164	0
9300	0.085641	0
9500	0.089189	0
9700	0.092810	0
9900	0.096503	0
10100	0.100267	0
10300	0.104104	0
10500	0.108013	0
10700	0.111994	0
10900	0.116047	0
11100	0.120172	0
11300	0.124369	0
11500	0.128638	0
11700	0.132979	0
11900	0.137392	0
12100	0.141877	0
12300	0.146434	0
12500	0.151063	0
12700	0.155765	0
12900	0.160538	0
13100	0.165383	0
13300	0.170301	0
13500	0.175290	0
13700	0.180351	0
13900	0.185485	0
14100	0.190690	0
14300	0.195968	0
14500	0.201318	0
14700	0.206739	0
14900	0.212233	0
15100	0.217799	0
15300	0.223436	0
15500	0.229146	0
15700	0.234928	0
15900	0.240782	0
16100	0.246708	0
16300	0.252705	0
16500	0.258775	0
16700	0.264917	0
16900	0.271131	0
17100	0.277417	0
17300	0.283776	0
17500	0.290206	0
17700	0.296708	0
17900	0.303282	0
18100	0.309928	0
18300	0.316647	0
18500	0.323437	0
18700	0.330299	0
18900	0.337234	0
19100	0.344240	0
19300	0.351319	0
19500	0.358469	0
19700	0.365692	0
19900	0.372986	0
20100	0.380353	0
20300	0.387792	0
20500	0.395302	0
20700	0.402885	0
20900	0.410540	0
21100	0.418267	0
21300	0.426065	0
21500	0.433936	0
21700	0.441879	0
21900	0.449894	0
22100	0.457981	0
22300	0.466140	0
22500	0.474371	0
22700	0.482674	0
22900	0.491049	0
23100	0.499497	0
23300	0.508016	0
23500	0.516607	0
23700	0.525270	0
23900	0.534006	0
24100	0.542813	0
24300	0.551692	0
24500	0.560644	0
24700	0.569667	0
24900	0.578763	0
25100	0.587930	0
25300	0.597170	0
25500	0.606482	0
25700	0.615865	0
25900	0.625321	0
26100	0.634849	0
26300	0.644449	0
26500	0.654120	0
26700	0.663864	0
26900	0.673680	0
27100	0.683568	0
27300	0.693528	0
27500	0.703560	0
27700	0.713664	0
27900	0.723840	0
28100	0.734088	0
28300	0.744408	0
28500	0.754800	0
28700	0.765265	0
28900	0.775801	0
29100	0.786409	0
29300	0.797090	0
29500	0.807842	0
29700	0.818666	0
29900	0.829563	0
30100	0.840531	0
30300	0.851572	0
30500	0.862684	10
30700	0.873869	5
30900	0.885125	0
31100	0.896454	0
31300	0.907855	8
31500	0.919328	31
31700	0.930872	0
31900	0.942489	0
32100	0.954178	0
32300	0.965939	1
32500	0.977772	0
32700	0.989677	0
32900	1.001654	5690
33100	1.013703	1902
33300	1.025824	2
33500	1.038017	0
33700	1.050282	2
33900	1.062619	0
34100	1.075029	0
34300	1.087510	0
34500	1.100063	0
34700	1.112688	3
34900	1.125386	0
35100	1.138155	1
35300	1.150997	0
35500	1.163910	0
35700	1.176896	61
35900	1.189953	0
36100	1.203083	1
36300	1.216284	0
36500	1.229558	8
36700	1.242904	0
36900	1.256322	0
37100	1.269811	1
37300	1.283373	1
37500	1.297007	0
37700	1.310713	0
37900	1.324491	0
38100	1.338341	0
38300	1.352263	7
38500	1.366257	0
38700	1.380323	1
38900	1.394461	1
39100	1.408671	0
39300	1.422953	0
39500	1.437307	0
39700	1.451734	0
39900	1.466232	0
40100	1.480802	0
40300	1.495445	0
40500	1.510159	0
40700	1.524946	0
40900	1.539804	0
41100	1.554735	0
41300	1.569737	0
41500	1.584812	0
41700	1.599958	0
41900	1.615177	0
42100	1.630468	0
42300	1.645830	0
42500	1.661265	0
42700	1.676772	0
42900	1.692351	0
43100	1.708002	0
43300	1.723725	8
43500	1.739520	4
43700	1.755387	0
43900	1.771326	0
44100	1.787337	0
44300	1.803420	0
44500	1.819575	1
44700	1.835802	0
44900	1.852102	0
45100	1.868473	0
45300	1.884916	5
45500	1.901431	0
45700	1.918019	0
45900	1.934678	0
46100	1.951410	0
46300	1.968213	0
46500	1.985089	0
46700	2.002036	0
46900	2.019056	313
47100	2.036147	0
47300	2.053311	0
47500	2.070547	0
47700	2.087855	1
47900	2.105234	0
48100	2.122686	0
48300	2.140210	0
48500	2.157806	0
48700	2.175474	0
48900	2.193214	0
49100	2.211026	0
49300	2.228910	0
49500	2.246866	0
49700	2.264894	3
49900	2.282994	0
50100	2.301166	0
50300	2.319411	0
50500	2.337727	0
50700	2.356115	0
50900	2.374575	0
51100	2.393108	0
51300	2.411712	0
51500	2.430389	0
51700	2.449137	0
51900	2.467958	0
52100	2.486850	0
52300	2.505815	0
52500	2.524852	0
52700	2.543960	0
52900	2.563141	0
53100	2.582394	0
53300	2.601718	0
53500	2.621115	0
53700	2.640584	0
53900	2.660125	0
54100	2.679738	0
54300	2.699423	0
54500	2.719180	0
54700	2.739009	0
54900	2.758910	0
55100	2.778883	0
55300	2.798928	0
55500	2.819046	0
55700	2.839235	0
55900	2.859496	0
56100	2.879829	0
56300	2.900235	0
56500	2.920712	0
56700	2.941261	0
56900	2.961883	0
57100	2.982576	0
57300	3.003342	0
57500	3.024179	68
57700	3.045089	0
57900	3.066071	0
58100	3.087124	0
58300	3.108250	0
58500	3.129448	0
58700	3.150718	0
58900	3.172059	0
59100	3.193473	0
59300	3.214959	0
59500	3.236517	0
59700	3.258147	0
59900	3.279849	0
60100	3.301623	0
60300	3.323469	0
60500	3.345387	0
60700	3.367378	0
60900	3.389440	0
61100	3.411574	0
61300	3.433780	0
61500	3.456059	0
61700	3.478409	0
61900	3.500831	0
62100	3.523326	0
62300	3.545892	0
62500	3.568531	0
62700	3.591241	0
62900	3.614024	0
63100	3.636878	0
63300	3.659805	0
63500	3.682804	0
63700	3.705874	0
63900	3.729017	0
64100	3.752232	0
64300	3.775519	0
64500	3.798878	0
64700	3.822308	0
64900	3.845811	0
65100	3.869386	0
65300	3.893033	0
65500	3.916752	0
65700	3.940544	0
65900	3.964407	0
66100	3.988342	0
66300	4.012349	0
66500	4.036428	0
66700	4.060580	0
66900	4.084803	0
67100	4.109098	0
67300	4.133466	0
67500	4.157905	0
67700	4.182416	0
67900	4.207000	0
68100	4.231655	0
68300	4.256383	0
68500	4.281183	0
68700	4.306054	0
68900	4.330998	0
69100	4.356014	0
69300	4.381101	0
69500	4.406261	0
69700	4.431493	0
69900	4.456797	0
70100	4.482173	0
70300	4.507621	0
70500	4.533141	0
70700	4.558733	0
70900	4.584397	0
71100	4.610133	0
71300	4.635941	0
71500	4.661821	0
71700	4.687773	0
71900	4.713798	0
72100	4.739894	0
72300	4.766062	0
72500	4.792303	0
72700	4.818615	0
72900	4.844999	0
73100	4.871456	0
73300	4.897984	0
73500	4.924585	0
73700	4.951257	0
73900	4.978002	0
74100	5.004819	0
74300	5.031707	0
74500	5.058668	0
74700	5.085701	0
74900	5.112806	0
75100	5.139982	0
75300	5.167231	0
75500	5.194552	1
75700	5.221945	3
75900	5.249410	1
76100	5.276947	0
76300	5.304556	0
76500	5.332237	0
76700	5.359990	0
76900	5.387816	0
77100	5.415713	0
77300	5.443682	0
77500	5.471723	0
77700	5.499837	7
77900	5.528022	5
78100	5.556279	0
78300	5.584609	1
78500	5.613010	0
78700	5.641484	0
78900	5.670029	0
79100	5.698647	0
79300	5.727336	0
79500	5.756098	0
79700	5.784932	0
79900	5.813837	1
80100	5.842815	0
80300	5.871865	0
80500	5.900987	0
80700	5.930181	0
80900	5.959447	3
81100	5.988785	5
81300	6.018195	237
81500	6.047677	4
81700	6.077231	0
81900	6.106857	1
82100	6.136555	28
82300	6.166325	33
82500	6.196167	1
82700	6.226081	0
82900	6.256068	0
83100	6.286126	0
83300	6.316256	0
83500	6.346459	0
83700	6.376733	0
83900	6.407080	0
84100	6.437498	3
84300	6.467989	33
84500	6.498551	28
84700	6.529186	0
84900	6.559893	0
85100	6.590671	0
85300	6.621522	1
85500	6.652445	1
85700	6.683440	0
85900	6.714506	0
86100	6.745645	0
86300	6.776856	17
86500	6.808139	1
86700	6.839494	2
86900	6.870921	0
87100	6.902420	1
87300	6.933991	0
87500	6.965634	0
87700	6.997350	21
87900	7.029137	2676
88100	7.060996	15
88300	7.092927	0
88500	7.124931	6
88700	7.157006	1
88900	7.189153	1
89100	7.221373	1
89300	7.253664	1
89500	7.286028	0
89700	7.318463	1
89900	7.350971	0
90100	7.383550	0
90300	7.416202	1
90500	7.448926	24
90700	7.481722	0
90900	7.514589	1
91100	7.547529	0
91300	7.580541	4
91500	7.613625	0
91700	7.646781	0
91900	7.680009	0
92100	7.713309	0
92300	7.746681	0
92500	7.780125	0
92700	7.813641	0
92900	7.847229	0
93100	7.880889	2
93300	7.914621	0
93500	7.948426	0
93700	7.982302	1
93900	8.016250	5
94100	8.050271	0
94300	8.084363	0
94500	8.118527	0
94700	8.152764	0
94900	8.187072	0
95100	8.221453	0
95300	8.255906	0
95500	8.290430	0
95700	8.325027	0
95900	8.359695	0
96100	8.394436	0
96300	8.429249	0
96500	8.464134	0
96700	8.499091	0
96900	8.534119	0
97100	8.569220	0
97300	8.604393	0
97500	8.639638	0
97700	8.674955	0
97900	8.710344	0
98100	8.745806	0
98300	8.781339	0
98500	8.816944	0
98700	8.852621	0
98900	8.888370	0
99100	8.924192	0
99300	8.960085	1
99500	8.996050	0
99700	9.032088	0
99900	9.068197	0
100100	9.104379	0
100300	9.140632	0
100500	9.176958	0
100700	9.213355	0
100900	9.249825	0
101100	9.286366	0
101300	9.322980	0
101500	9.359666	0
101700	9.396424	0
101900	9.433253	0
102100	9.470155	0
102300	9.507129	0
102500	9.544175	0
102700	9.581293	0
102900	9.618483	0
103100	9.655745	0
103300	9.693079	0
103500	9.730485	0
103700	9.767963	0
103900	9.805514	0
104100	9.843136	0
104300	9.880830	0
104500	9.918596	1
104700	9.956435	0
104900	9.994345	22
105100	10.032327	5
105300	10.070382	0
105500	10.108508	0
105700	10.146707	1
105900	10.184977	0
106100	10.223320	0
106300	10.261735	0
106500	10.300221	0
106700	10.338780	4
106900	10.377411	1
107100	10.416113	2
107300	10.454888	0
107500	10.493735	1
107700	10.532654	1
107900	10.571645	0
108100	10.610708	3
108300	10.649843	2
108500	10.689050	1
108700	10.728329	0
108900	10.767680	1
109100	10.807103	8
109300	10.846598	66
109500	10.886166	52
109700	10.925805	0
109900	10.965516	0
110100	11.005299	93
110300	11.045155	0
110500	11.085082	1
110700	11.125082	0
110900	11.165153	0
111100	11.205297	0
111300	11.245512	4
111500	11.285800	95
111700	11.326159	49
111900	11.366591	0
112100	11.407095	1
112300	11.447671	0
112500	11.488318	7
112700	11.529038	4
112900	11.569830	2
113100	11.610694	3
113300	11.651630	12
113500	11.692638	24
113700	11.733718	0
113900	11.774870	11
114100	11.816094	60
114300	11.857390	16
114500	11.898758	0
114700	11.940198	0
114900	11.981710	4778
115100	12.023295	338
115300	12.064951	6
115500	12.106679	1
115700	12.148480	6
115900	12.190352	0
116100	12.232297	11
116300	12.274313	95
116500	12.316402	14
116700	12.358562	4
116900	12.400795	2
117100	12.443099	1
117300	12.485476	5
117500	12.527925	10
117700	12.570445	39
117900	12.613038	0
118100	12.655703	24
118300	12.698440	1
118500	12.741249	43
118700	12.784130	48
118900	12.827083	14
119100	12.870108	0
119300	12.913205	0
119500	12.956374	1
119700	12.999615	3234
119900	13.042928	10
120100	13.086313	10
120300	13.129770	3
120500	13.173300	2
120700	13.216901	68
120900	13.260574	94
121100	13.304320	12
121300	13.348137	1
121500	13.392027	2
121700	13.435988	9
121900	13.480022	20
122100	13.524127	8
122300	13.568305	0
122500	13.612554	36
122700	13.656876	22
122900	13.701270	45
123100	13.745735	163
123300	13.790273	39
123500	13.834883	0
123700	13.879565	2
123900	13.924319	0
124100	13.969145	3
124300	14.014043	4237
124500	14.059013	3
124700	14.104055	5
124900	14.149169	7
125100	14.194355	71
125300	14.239613	225
125500	14.284943	14
125700	14.330345	0
125900	14.375820	2
126100	14.421366	3
126300	14.466984	13
126500	14.512675	2
126700	14.558437	1
126900	14.604272	0
127100	14.650178	66
127300	14.696157	1
127500	14.742207	3
127700	14.788330	2
127900	14.834524	1
128100	14.880791	0
128300	14.927130	0
128500	14.973540	0
128700	15.020023	11602
128900	15.066578	5
129100	15.113205	8
129300	15.159904	2
129500	15.206675	12
129700	15.253518	1
129900	15.300433	1
130100	15.347420	0
130300	15.394479	1
130500	15.441610	1
130700	15.488813	1
130900	15.536088	0
131100	15.583436	0
131300	15.630855	5
131500	15.678346	71
131700	15.725909	0
131900	15.773545	1
132100	15.821252	9
132300	15.869032	0
132500	15.916883	0
132700	15.964807	1
132900	16.012802	305
133100	16.060870	17
133300	16.109009	1
133500	16.157221	5
133700	16.205505	0
133900	16.253861	9
134100	16.302288	3
134300	16.350788	2
134500	16.399360	1
134700	16.448004	0
134900	16.496720	0
135100	16.545508	0
135300	16.594368	11
135500	16.643300	21
135700	16.692304	3
135900	16.741380	0
136100	16.790528	0
136300	16.839748	0
136500	16.889041	0
136700	16.938405	2
136900	16.987841	111
137100	17.037350	66
137300	17.086930	1
137500	17.136582	13
137700	17.186307	24
137900	17.236103	0
138100	17.285972	0
138300	17.335912	0
138500	17.385925	0
138700	17.436010	0
138900	17.486166	0
139100	17.536395	5
139300	17.586696	4
139500	17.637069	7
139700	17.687513	0
139900	17.738030	1
140100	17.788619	0
140300	17.839280	0
140500	17.890013	0
140700	17.940818	0
140900	17.991695	74
141100	18.042644	1366
141300	18.093665	15
141500	18.144758	14
141700	18.195924	3
141900	18.247161	2
142100	18.298470	2
142300	18.349851	0
142500	18.401305	1
142700	18.452830	1
142900	18.504428	0
143100	18.556097	0
143300	18.607839	4
143500	18.659652	0
143700	18.711538	0
143900	18.763495	11
144100	18.815525	0
144300	18.867627	2
144500	18.919800	0
144700	18.972046	7
144900	19.024364	456
145100	19.076754	1
145300	19.129215	0
145500	19.181749	0
145700	19.234355	0
145900	19.287033	0
146100	19.339783	0
146300	19.392605	0
146500	19.445499	0
146700	19.498466	0
146900	19.551504	0
147100	19.604614	1
147300	19.657796	0
147500	19.711050	0
147700	19.764377	1
147900	19.817775	0
148100	19.871245	0
148300	19.924788	0
148500	19.978402	9
148700	20.032089	2
148900	20.085847	0
149100	20.139678	0
149300	20.193581	0
149500	20.247555	0
149700	20.301602	0
149900	20.355721	0
150100	20.409911	1
150300	20.464174	1
150500	20.518509	1
150700	20.572916	0
150900	20.627395	0
151100	20.681946	6074
151300	20.736569	3583
151500	20.791264	729
151700	20.846031	140
151900	20.900870	75
152100	20.955781	31
152300	21.010764	430
152500	21.065819	1508
152700	21.120947	886
152900	21.176146	12
153100	21.231417	10
153300	21.286760	9
153500	21.342176	5298
153700	21.397663	9239
153900	21.453223	2644
154100	21.508854	70
154300	21.564558	39
154500	21.620333	57
154700	21.676181	36
154900	21.732101	24
155100	21.788092	24
155300	21.844156	31
155500	21.900292	10
155700	21.956499	4784
155900	22.012779	11769
156100	22.069131	1773
156300	22.125555	119
156500	22.182051	162
156700	22.238619	87
156900	22.295259	2016
157100	22.351971	241
157300	22.408755	31
157500	22.465611	23
157700	22.522539	7862
157900	22.579540	388
158100	22.636612	136
158300	22.693756	72
158500	22.750973	58
158700	22.808261	242
158900	22.865621	27
159100	22.923054	101
159300	22.980558	1628476
159500	23.038135	38701
159700	23.095783	2730
159900	23.153504	1758
160100	23.211296	2078
160300	23.269161	898
160500	23.327098	681
160700	23.385106	609
160900	23.443187	455
161100	23.501340	688
161300	23.559565	305
161500	23.617862	272
161700	23.676231	145
161900	23.734672	152
162100	23.793184	11747
162300	23.851769	168
162500	23.910427	371
162700	23.969156	2808
162900	24.027957	483
163100	24.086830	77
163300	24.145775	71
163500	24.204792	134
163700	24.263882	80
163900	24.323043	139
164100	24.382276	50
164300	24.441582	31
164500	24.500959	2248
164700	24.560409	508
164900	24.619930	39
165100	24.679524	282
165300	24.739189	52
165500	24.798927	31
165700	24.858736	32
165900	24.918618	82
166100	24.978572	1377
166300	25.038598	319
166500	25.098695	16
166700	25.158865	10
166900	25.219107	90
167100	25.279421	428
167300	25.339807	232
167500	25.400265	19
167700	25.460795	135
167900	25.521397	125
168100	25.582071	13
168300	25.642817	2
168500	25.703635	3
168700	25.764526	5
168900	25.825488	25
169100	25.886522	74
169300	25.947629	701
169500	26.008807	6707
169700	26.070057	6
169900	26.131380	15
170100	26.192774	93
170300	26.254241	160
170500	26.315779	62
170700	26.377390	14
170900	26.439072	493
171100	26.500827	260
171300	26.562654	119
171500	26.624552	5
171700	26.686523	6
171900	26.748566	3
172100	26.810681	27
172300	26.872868	179
172500	26.935127	318
172700	26.997458	32551
172900	27.059861	2548
173100	27.122336	22
173300	27.184883	198
173500	27.247502	513
173700	27.310193	119
173900	27.372956	43
174100	27.435791	69
174300	27.498699	41
174500	27.561678	30
174700	27.624729	9
174900	27.687853	4
175100	27.751048	3
175300	27.814315	24
175500	27.877655	468
175700	27.941066	1477
175900	28.004550	10900
176100	28.068105	407
176300	28.131733	47
176500	28.195433	62
176700	28.259204	90
176900	28.323048	52
177100	28.386964	42
177300	28.450952	8
177500	28.515012	145
177700	28.579143	9
177900	28.643347	38
178100	28.707623	17
178300	28.771971	8
178500	28.836391	52
178700	28.900883	138
178900	28.965447	1424
179100	29.030084	38857
179300	29.094792	105
179500	29.159572	72
179700	29.224424	34
179900	29.289349	28
180100	29.354345	15
180300	29.419413	6
180500	29.484554	14
180700	29.549766	21
180900	29.615050	8
181100	29.680407	16
181300	29.745836	3
181500	29.811336	9
181700	29.876909	107
181900	29.942553	387
182100	30.008270	4335
182300	30.074059	904
182500	30.139920	50
182700	30.205852	7
182900	30.271857	2
183100	30.337934	7
183300	30.404083	10
183500	30.470304	16
183700	30.536597	6
183900	30.602962	10
184100	30.669399	4
184300	30.735908	34
184500	30.802489	6
184700	30.869142	11
184900	30.935868	48
185100	31.002665	3651
185300	31.069534	104
185500	31.136476	12
185700	31.203489	14
185900	31.270574	14
186100	31.337732	1
186300	31.404961	2
186500	31.472263	3
186700	31.539636	10
186900	31.607082	7
187100	31.674600	4
187300	31.742189	6
187500	31.809851	3
187700	31.877585	2
187900	31.945390	39
188100	32.013268	122
188300	32.081218	102
188500	32.149240	3
188700	32.217334	2
188900	32.285500	3
189100	32.353738	2
189300	32.422048	3
189500	32.490430	2
189700	32.558884	2
189900	32.627410	3
190100	32.696008	2
190300	32.764679	3
190500	32.833421	0
190700	32.902235	0
190900	32.971121	20
191100	33.040080	39
191300	33.109110	5
191500	33.178213	0
191700	33.247387	2
191900	33.316634	2
192100	33.385952	4
192300	33.455343	3
192500	33.524805	5
192700	33.594340	1
192900	33.663947	0
193100	33.733625	6
193300	33.803376	4
193500	33.873199	0
193700	33.943094	5
193900	34.013061	10
194100	34.083100	33
194300	34.153211	12
194500	34.223394	0
194700	34.293649	2
194900	34.363976	0
195100	34.434375	0
195300	34.504846	2
195500	34.575389	2
195700	34.646004	1
195900	34.716692	4
196100	34.787451	6
196300	34.858282	0
196500	34.929186	28
196700	35.000161	230
196900	35.071208	90
197100	35.142328	7
197300	35.213519	0
197500	35.284783	2
197700	35.356119	1
197900	35.427526	5
198100	35.499006	5
198300	35.570558	2
198500	35.642181	1
198700	35.713877	22
198900	35.785645	38
199100	35.857485	4
199300	35.929397	779
199500	36.001381	2036
199700	36.073437	347
199900	36.145565	26
200100	36.217765	6
200300	36.290037	2
200500	36.362381	18
200700	36.434797	126
200900	36.507285	102
201100	36.579845	16
201300	36.652478	1
201500	36.725182	54
201700	36.797958	329
201900	36.870807	1890
202100	36.943727	1649
202300	37.016719	3058
202500	37.089784	34
202700	37.162920	25
202900	37.236129	7
203100	37.309410	14
203300	37.382762	39
203500	37.456187	62
203700	37.529684	12
203900	37.603252	171
204100	37.676893	2227
204300	37.750606	1173
204500	37.824391	305
204700	37.898248	559
204900	37.972177	2072
205100	38.046178	4370
205300	38.120251	94
205500	38.194396	28
