# Binning: 200 channels
# Deadtime Correction: on
Channel	m/z	Intensity
867	0.000009	0
1067	0.000082	0
1267	0.000227	0
1467	0.000445	0
1667	0.000735	0
1867	0.001098	0
2067	0.001534	0
2267	0.002042	0
2467	0.002622	0
2667	0.003276	0
2867	0.004002	0
3067	0.004800	0
3267	0.005671	0
3467	0.006614	0
3667	0.007630	0
3867	0.008719	0
4067	0.009880	0
4267	0.011114	0
4467	0.012420	0
4667	0.013799	0
4867	0.015251	0
5067	0.016775	0
5267	0.018371	0
5467	0.020040	0
5667	0.021782	0
5867	0.023597	0
6067	0.025483	0
6267	0.027443	0
6467	0.029475	0
6667	0.031579	0
6867	0.033757	0
7067	0.036006	0
7267	0.038329	0
7467	0.040723	0
7667	0.043191	0
7867	0.045731	0
8067	0.048343	0
8267	0.051028	0
8467	0.053786	0
8667	0.056616	0
8867	0.059519	0
9067	0.062495	0
9267	0.065543	0
9467	0.068663	0
9667	0.071856	0
9867	0.075122	0
10067	0.078460	0
10267	0.081871	0
10467	0.085354	0
10667	0.088910	0
10867	0.092539	0
11067	0.096240	0
11267	0.100013	0
11467	0.103860	0
11667	0.107778	0
11867	0.111770	0
12067	0.115834	0
12267	0.119970	0
12467	0.124179	0
12667	0.128461	0
12867	0.132815	0
13067	0.137242	0
13267	0.141741	0
13467	0.146313	0
13667	0.150957	0
13867	0.155674	0
14067	0.160464	0
14267	0.165326	0
14467	0.170261	0
14667	0.175268	0
14867	0.180348	0
15067	0.185500	0
15267	0.190725	0
15467	0.196023	0
15667	0.201393	0
15867	0.206836	0
16067	0.212351	0
16267	0.217939	0
16467	0.223599	0
16667	0.229332	0
16867	0.235138	0
17067	0.241016	0
17267	0.246966	0
17467	0.252989	0
17667	0.259085	0
17867	0.265254	0
18067	0.271495	0
18267	0.277808	0
18467	0.284194	0
18667	0.290653	0
18867	0.297184	0
19067	0.303788	0
19267	0.310464	0
19467	0.317213	0
19667	0.324034	0
19867	0.330929	0
20067	0.337895	0
20267	0.344934	0
20467	0.352046	0
20667	0.359230	0
20867	0.366487	0
21067	0.373817	0
21267	0.381219	0
21467	0.388693	0
21667	0.396240	0
21867	0.403860	0
22067	0.411552	0
22267	0.419317	0
22467	0.427155	0
22667	0.435065	0
22867	0.443047	0
23067	0.451102	0
23267	0.459230	0
23467	0.467430	0
23667	0.475703	0
23867	0.484049	0
24067	0.492466	0
24267	0.500957	0
24467	0.509520	0
24667	0.518156	0
24867	0.526864	0
25067	0.535645	0
25267	0.544498	0
25467	0.553424	0
25667	0.562423	0
25867	0.571494	0
26067	0.580637	0
26267	0.589853	0
26467	0.599142	0
26667	0.608504	0
26867	0.617937	0
27067	0.627444	0
27267	0.637023	0
27467	0.646675	0
27667	0.656399	0
27867	0.666196	0
28067	0.676065	0
28267	0.686007	0
28467	0.696021	0
28667	0.706108	0
28867	0.716268	0
29067	0.726500	0
29267	0.736805	0
29467	0.747182	0
29667	0.757632	0
29867	0.768154	0
30067	0.778749	0
30267	0.789417	0
30467	0.800157	0
30667	0.810970	0
30867	0.821855	0
31067	0.832813	0
31267	0.843843	0
31467	0.854946	0
31667	0.866122	0
31867	0.877370	0
32067	0.888690	0
32267	0.900084	0
32467	0.911549	0
32667	0.923088	0
32867	0.934699	5
33067	0.946382	6820
33267	0.958138	1
33467	0.969967	0
33667	0.981868	1
33867	0.993842	0
34067	1.005888	0
34267	1.018007	0
34467	1.030199	0
34667	1.042463	0
34867	1.054799	0
35067	1.067208	0
35267	1.079690	0
35467	1.092244	0
35667	1.104871	0
35867	1.117571	0
36067	1.130343	0
36267	1.143187	0
36467	1.156105	0
36667	1.169094	0
36867	1.182157	0
37067	1.195291	0
37267	1.208499	0
37467	1.221779	0
37667	1.235131	0
37867	1.248556	0
38067	1.262054	0
38267	1.275624	0
38467	1.289267	0
38667	1.302983	0
38867	1.316771	0
39067	1.330631	0
39267	1.344564	0
39467	1.358570	0
39667	1.372648	0
39867	1.386799	0
40067	1.401022	0
40267	1.415318	0
40467	1.429687	0
40667	1.444128	0
40867	1.458641	0
41067	1.473228	0
41267	1.487886	0
41467	1.502618	0
41667	1.517422	0
41867	1.532298	0
42067	1.547247	0
42267	1.562269	0
42467	1.577363	0
42667	1.592530	0
42867	1.607769	0
43067	1.623081	0
43267	1.638465	0
43467	1.653922	0
43667	1.669452	0
43867	1.685054	0
44067	1.700729	0
44267	1.716476	0
44467	1.732296	0
44667	1.748188	0
44867	1.764153	0
45067	1.780191	0
45267	1.796301	0
45467	1.812484	0
45667	1.828739	0
45867	1.845067	0
46067	1.861467	0
46267	1.877940	0
46467	1.894486	0
46667	1.911104	1
46867	1.927795	344
47067	1.944558	0
47267	1.961394	0
47467	1.978302	0
47667	1.995283	0
47867	2.012336	0
48067	2.029462	0
48267	2.046661	0
48467	2.063932	0
48667	2.081276	0
48867	2.098692	0
49067	2.116181	0
49267	2.133743	0
49467	2.151377	0
49667	2.169084	0
49867	2.186863	0
50067	2.204714	0
50267	2.222639	0
50467	2.240636	0
50667	2.258705	0
50867	2.276847	0
51067	2.295062	0
51267	2.313349	0
51467	2.331709	0
51667	2.350141	0
51867	2.368646	0
52067	2.387223	0
52267	2.405873	0
52467	2.424596	0
52667	2.443391	0
52867	2.462259	0
53067	2.481199	0
53267	2.500212	0
53467	2.519297	0
53667	2.538455	0
53867	2.557686	0
54067	2.576989	0
54267	2.596364	0
54467	2.615813	0
54667	2.635333	0
54867	2.654927	0
55067	2.674593	0
55267	2.694331	0
55467	2.714142	0
55667	2.734026	0
55867	2.753982	0
56067	2.774011	0
56267	2.794112	0
56467	2.814286	0
56667	2.834533	0
56867	2.854852	0
57067	2.875243	0
57267	2.895707	0
57467	2.916244	67
57667	2.936854	0
57867	2.957535	0
58067	2.978290	0
58267	2.999117	0
58467	3.020016	0
58667	3.040989	0
58867	3.062033	0
59067	3.083151	0
59267	3.104340	0
59467	3.125603	0
59667	3.146938	0
59867	3.168345	0
60067	3.189826	0
60267	3.211378	0
60467	3.233004	0
60667	3.254701	0
60867	3.276472	0
61067	3.298315	0
61267	3.320230	0
61467	3.342218	0
61667	3.364279	0
61867	3.386412	0
62067	3.408618	0
62267	3.430896	0
62467	3.453247	0
62667	3.475671	0
62867	3.498167	0
63067	3.520736	0
63267	3.543377	0
63467	3.566091	0
63667	3.588877	0
63867	3.611736	0
64067	3.634667	0
64267	3.657671	0
64467	3.680748	0
64667	3.703897	0
64867	3.727119	0
65067	3.750413	0
65267	3.773780	0
65467	3.797220	0
65667	3.820732	0
65867	3.844316	0
66067	3.867973	0
66267	3.891703	0
66467	3.915505	0
66667	3.939380	0
66867	3.963328	0
67067	3.987348	0
67267	4.011440	0
67467	4.035605	0
67667	4.059843	0
67867	4.084153	0
68067	4.108536	0
68267	4.132992	0
68467	4.157520	0
68667	4.182120	0
68867	4.206793	0
69067	4.231539	0
69267	4.256357	0
69467	4.281248	0
69667	4.306211	0
69867	4.331247	0
70067	4.356356	0
70267	4.381537	0
70467	4.406791	0
70667	4.432117	0
70867	4.457516	0
71067	4.482987	0
71267	4.508531	0
71467	4.534147	0
71667	4.559836	0
71867	4.585598	0
72067	4.611432	0
72267	4.637339	0
72467	4.663318	0
72667	4.689370	0
72867	4.715495	0
73067	4.741692	0
73267	4.767961	0
73467	4.794303	0
73667	4.820718	0
73867	4.847205	0
74067	4.873765	0
74267	4.900398	0
74467	4.927103	0
74667	4.953880	0
74867	4.980730	0
75067	5.007653	0
75267	5.034648	0
75467	5.061716	0
75667	5.088857	0
75867	5.116070	0
76067	5.143355	0
76267	5.170713	0
76467	5.198144	0
76667	5.225647	0
76867	5.253223	0
77067	5.280871	0
77267	5.308592	0
77467	5.336386	0
77667	5.364252	0
77867	5.392190	0
78067	5.420202	0
78267	5.448285	0
78467	5.476442	0
78667	5.504671	0
78867	5.532972	0
79067	5.561346	0
79267	5.589793	0
79467	5.618312	0
79667	5.646904	0
79867	5.675568	0
80067	5.704305	0
80267	5.733114	0
80467	5.761997	0
80667	5.790951	0
80867	5.819978	0
81067	5.849078	0
81267	5.878250	114
81467	5.907495	2
81667	5.936813	0
81867	5.966203	0
82067	5.995665	1
82267	6.025200	0
82467	6.054808	0
82667	6.084488	0
82867	6.114241	0
83067	6.144067	0
83267	6.173964	0
83467	6.203935	0
83667	6.233978	0
83867	6.264094	0
84067	6.294282	0
84267	6.324543	0
84467	6.354876	0
84667	6.385282	0
84867	6.415761	0
85067	6.446312	0
85267	6.476935	0
85467	6.507632	0
85667	6.538400	0
85867	6.569242	0
86067	6.600156	0
86267	6.631142	0
86467	6.662201	0
86667	6.693333	0
86867	6.724537	0
87067	6.755814	0
87267	6.787163	0
87467	6.818585	0
87667	6.850079	1
87867	6.881647	1520
88067	6.913286	12
88267	6.944998	0
88467	6.976783	1
88667	7.008640	1
88867	7.040570	1
89067	7.072573	1
89267	7.104648	0
89467	7.136795	0
89667	7.169015	0
89867	7.201308	0
90067	7.233673	0
90267	7.266111	0
90467	7.298622	0
90667	7.331205	0
90867	7.363860	0
91067	7.396588	0
91267	7.429389	0
91467	7.462262	0
91667	7.495208	0
91867	7.528226	0
92067	7.561317	0
92267	7.594481	0
92467	7.627717	0
92667	7.661025	0
92867	7.694407	0
93067	7.727860	0
93267	7.761387	0
93467	7.794986	0
93667	7.828657	0
93867	7.862401	1
94067	7.896218	0
94267	7.930107	0
94467	7.964069	0
94667	7.998103	0
94867	8.032210	0
95067	8.066390	0
95267	8.100642	0
95467	8.134966	0
95667	8.169363	0
95867	8.203833	0
96067	8.238375	0
96267	8.272990	0
96467	8.307678	0
96667	8.342438	0
96867	8.377270	0
97067	8.412175	0
97267	8.447153	0
97467	8.482203	0
97667	8.517326	0
97867	8.552522	0
98067	8.587790	0
98267	8.623130	0
98467	8.658543	0
98667	8.694029	0
98867	8.729587	0
99067	8.765218	0
99267	8.800921	0
99467	8.836697	0
99667	8.872546	0
99867	8.908467	0
100067	8.944461	0
100267	8.980527	0
100467	9.016666	0
100667	9.052877	0
100867	9.089161	0
101067	9.125517	0
101267	9.161946	0
101467	9.198448	0
101667	9.235022	0
101867	9.271669	0
102067	9.308388	0
102267	9.345180	0
102467	9.382045	0
102667	9.418982	0
102867	9.455991	0
103067	9.493073	0
103267	9.530228	0
103467	9.567456	0
103667	9.604755	0
103867	9.642128	0
104067	9.679573	0
104267	9.717090	0
104467	9.754681	0
104667	9.792343	0
104867	9.830079	0
105067	9.867886	28
105267	9.905767	0
105467	9.943720	0
105667	9.981745	0
105867	10.019843	0
106067	10.058014	0
106267	10.096257	0
106467	10.134573	0
106667	10.172962	0
106867	10.211423	0
107067	10.249956	0
107267	10.288562	0
107467	10.327241	0
107667	10.365992	0
107867	10.404816	0
108067	10.443712	0
108267	10.482681	0
108467	10.521723	0
108667	10.560837	0
108867	10.600023	0
109067	10.639282	0
109267	10.678614	0
109467	10.718019	0
109667	10.757495	0
109867	10.797045	0
110067	10.836667	104
110267	10.876362	0
110467	10.916129	0
110667	10.955968	0
110867	10.995881	0
111067	11.035866	0
111267	11.075923	0
111467	11.116053	1
111667	11.156256	0
111867	11.196531	0
112067	11.236878	0
112267	11.277299	0
112467	11.317792	0
112667	11.358357	0
112867	11.398995	0
113067	11.439706	0
113267	11.480489	0
113467	11.521344	0
113667	11.562273	0
113867	11.603273	0
114067	11.644347	0
114267	11.685493	1
114467	11.726711	0
114667	11.768002	0
114867	11.809366	72
115067	11.850802	4884
115267	11.892311	1
115467	11.933892	0
115667	11.975546	0
115867	12.017273	0
116067	12.059072	0
116267	12.100943	0
116467	12.142888	1
116667	12.184904	0
116867	12.226994	0
117067	12.269156	0
117267	12.311390	0
117467	12.353697	0
117667	12.396077	0
117867	12.438529	0
118067	12.481054	0
118267	12.523651	0
118467	12.566321	0
118667	12.609063	0
118867	12.651878	0
119067	12.694766	0
119267	12.737726	0
119467	12.780759	0
119667	12.823864	3111
119867	12.867042	16
120067	12.910292	1
120267	12.953615	0
120467	12.997011	0
120667	13.040479	0
120867	13.084020	0
121067	13.127633	0
121267	13.171319	0
121467	13.215077	0
121667	13.258908	0
121867	13.302812	0
122067	13.346788	0
122267	13.390836	0
122467	13.434958	0
122667	13.479151	0
122867	13.523418	0
123067	13.567757	0
123267	13.612168	0
123467	13.656652	1
123667	13.701209	0
123867	13.745838	0
124067	13.790540	0
124267	13.835314	3747
124467	13.880161	3
124667	13.925080	0
124867	13.970072	1
125067	14.015137	0
125267	14.060274	0
125467	14.105484	1
125667	14.150766	0
125867	14.196121	0
126067	14.241549	0
126267	14.287049	0
126467	14.332621	1
126667	14.378266	0
126867	14.423984	0
127067	14.469774	0
127267	14.515637	0
127467	14.561573	0
127667	14.607581	0
127867	14.653661	0
128067	14.699814	0
128267	14.746040	0
128467	14.792338	0
128667	14.838709	9488
128867	14.885152	17
129067	14.931668	2
129267	14.978257	1
129467	15.024918	2
129667	15.071652	0
129867	15.118458	1
130067	15.165337	0
130267	15.212288	1
130467	15.259312	0
130667	15.306408	0
130867	15.353578	0
131067	15.400819	0
131267	15.448133	0
131467	15.495520	0
131667	15.542979	0
131867	15.590511	0
132067	15.638116	0
132267	15.685793	0
132467	15.733542	0
132667	15.781365	0
132867	15.829259	220
133067	15.877227	35
133267	15.925267	0
133467	15.973379	0
133667	16.021564	0
133867	16.069822	0
134067	16.118152	0
134267	16.166554	0
134467	16.215030	0
134667	16.263578	0
134867	16.312198	0
135067	16.360891	0
135267	16.409657	0
135467	16.458495	0
135667	16.507405	0
135867	16.556389	0
136067	16.605444	0
136267	16.654573	0
136467	16.703774	0
136667	16.753047	0
136867	16.802393	96
137067	16.851812	61
137267	16.901303	0
137467	16.950867	0
137667	17.000503	0
137867	17.050212	0
138067	17.099994	0
138267	17.149848	0
138467	17.199775	0
138667	17.249774	0
138867	17.299846	0
139067	17.349990	0
139267	17.400207	0
139467	17.450496	0
139667	17.500858	0
139867	17.551293	0
140067	17.601800	0
140267	17.652380	0
140467	17.703032	0
140667	17.753757	0
140867	17.804554	28
141067	17.855424	1178
141267	17.906367	8
141467	17.957382	1
141667	18.008470	1
141867	18.059630	0
142067	18.110863	0
142267	18.162168	0
142467	18.213546	0
142667	18.264997	1
142867	18.316520	0
143067	18.368116	0
143267	18.419784	0
143467	18.471525	0
143667	18.523338	0
143867	18.575224	0
144067	18.627183	0
144267	18.679214	0
144467	18.731318	0
144667	18.783494	0
144867	18.835743	320
145067	18.888064	2
145267	18.940458	0
145467	18.992924	0
145667	19.045463	0
145867	19.098075	0
146067	19.150759	0
146267	19.203516	0
146467	19.256345	0
146667	19.309247	0
146867	19.362222	0
147067	19.415269	0
147267	19.468388	1
147467	19.521581	1
147667	19.574845	0
147867	19.628183	0
148067	19.681593	0
148267	19.735075	0
148467	19.788630	18
148667	19.842258	1
148867	19.895958	0
149067	19.949730	1
149267	20.003576	0
149467	20.057494	0
149667	20.111484	1
149867	20.165547	0
150067	20.219683	2
150267	20.273891	0
150467	20.328171	1
150667	20.382525	0
150867	20.436950	1
151067	20.491449	0
151267	20.546020	0
151467	20.600663	0
151667	20.655379	0
151867	20.710168	1
152067	20.765029	0
152267	20.819963	2
152467	20.874970	0
152667	20.930048	0
152867	20.985200	2
153067	21.040424	0
153267	21.095721	0
153467	21.151090	1
153667	21.206532	0
153867	21.262046	1
154067	21.317633	0
154267	21.373292	0
154467	21.429024	0
154667	21.484829	0
154867	21.540706	1
155067	21.596656	1
155267	21.652678	3
155467	21.708773	0
155667	21.764941	1
155867	21.821181	0
156067	21.877493	0
156267	21.933878	0
156467	21.990336	0
156667	22.046866	0
156867	22.103469	0
157067	22.160145	0
157267	22.216893	0
157467	22.273713	0
157667	22.330606	0
157867	22.387572	0
158067	22.444610	0
158267	22.501721	1
158467	22.558904	0
158667	22.616160	108
158867	22.673489	9
159067	22.730890	21
159267	22.788364	1323782
159467	22.845910	94197
159667	22.903529	3061
159867	22.961220	2042
160067	23.018984	1383
160267	23.076821	1033
160467	23.134730	700
160667	23.192711	544
160867	23.250765	361
161067	23.308892	313
161267	23.367092	258
161467	23.425363	180
161667	23.483708	143
161867	23.542125	112
162067	23.600615	91
162267	23.659177	81
162467	23.717812	82
162667	23.776519	1261
162867	23.835299	1016
163067	23.894151	46
163267	23.953076	47
163467	24.012074	45
163667	24.071144	36
163867	24.130287	28
164067	24.189502	22
164267	24.248790	20
164467	24.308150	22
164667	24.367583	12
164867	24.427089	14
165067	24.486667	16
165267	24.546318	17
165467	24.606041	12
165667	24.665837	12
165867	24.725705	12
166067	24.785646	287
166267	24.845660	1346
166467	24.905746	10
166667	24.965904	12
166867	25.026136	7
167067	25.086439	8
167267	25.146816	5
167467	25.207265	6
167667	25.267786	6
167867	25.328380	7
168067	25.389047	3
168267	25.449786	2
168467	25.510598	4
168667	25.571482	2
168867	25.632439	4
169067	25.693469	2
169267	25.754571	66
169467	25.815745	6092
169667	25.876993	16
169867	25.938312	3
170067	25.999705	2
170267	26.061169	2
170467	26.122707	4
170667	26.184317	1
170867	26.246000	5
171067	26.307755	3
171267	26.369582	2
171467	26.431483	4
171667	26.493456	1
171867	26.555501	5
172067	26.617619	3
172267	26.679810	3
172467	26.742073	17
172667	26.804408	5835
172867	26.866817	22399
173067	26.929297	22
173267	26.991851	7
173467	27.054477	5
173667	27.117175	5
173867	27.179946	6
174067	27.242790	3
174267	27.305706	4
174467	27.368695	3
174667	27.431757	2
174867	27.494890	1
175067	27.558097	3
175267	27.621376	4
175467	27.684728	1
175667	27.748152	17
175867	27.811649	7339
176067	27.875218	3038
176267	27.938860	7
176467	28.002574	2
176667	28.066361	1
176867	28.130221	3
177067	28.194153	4
177267	28.258158	1
177467	28.322235	0
177667	28.386385	1
177867	28.450608	1
178067	28.514903	1
178267	28.579270	4
178467	28.643710	4
178667	28.708223	2
178867	28.772808	679
179067	28.837466	30227
179267	28.902197	287
179467	28.967000	17
179667	29.031875	5
179867	29.096823	3
180067	29.161844	5
180267	29.226937	7
180467	29.292103	0
180667	29.357342	2
180867	29.422653	4
181067	29.488036	2
181267	29.553492	1
181467	29.619021	2
181667	29.684622	3
181867	29.750296	4
182067	29.816042	1345
182267	29.881861	3132
182467	29.947753	10
182667	30.013717	2
182867	30.079753	0
183067	30.145863	2
183267	30.212044	1
183467	30.278299	0
183667	30.344626	2
183867	30.411025	4
184067	30.477497	3
184267	30.544042	1
184467	30.610659	0
184667	30.677349	1
184867	30.744111	3
185067	30.810946	2689
185267	30.877853	259
185467	30.944834	2
185667	31.011886	2
185867	31.079011	11
186067	31.146209	2
186267	31.213479	0
186467	31.280822	1
186667	31.348238	3
186867	31.415726	4
187067	31.483286	2
187267	31.550919	4
187467	31.618625	1
187667	31.686403	1
187867	31.754254	7
188067	31.822177	86
188267	31.890173	126
188467	31.958242	3
188667	32.026383	0
188867	32.094597	2
189067	32.162883	3
189267	32.231242	1
189467	32.299673	2
189667	32.368177	2
189867	32.436754	1
190067	32.505403	0
190267	32.574124	0
190467	32.642919	0
190667	32.711785	0
190867	32.780725	9
191067	32.849737	38
191267	32.918821	0
191467	32.987978	1
191667	33.057208	1
191867	33.126510	0
192067	33.195885	0
192267	33.265332	4
192467	33.334852	0
192667	33.404444	1
192867	33.474109	0
193067	33.543847	0
193267	33.613657	1
193467	33.683540	1
193667	33.753495	1
193867	33.823523	7
194067	33.893623	0
194267	33.963796	0
194467	34.034042	0
194667	34.104360	0
194867	34.174751	1
195067	34.245214	0
195267	34.315750	0
195467	34.386358	0
195667	34.457039	3
195867	34.527793	3
196067	34.598619	0
196267	34.669518	1
196467	34.740489	3
196667	34.811533	171
196867	34.882649	0
197067	34.953838	1
197267	35.025100	0
197467	35.096434	1
197667	35.167840	2
197867	35.239319	1
198067	35.310871	2
198267	35.382496	2
198467	35.454193	0
198667	35.525962	1
198867	35.597804	1
199067	35.669719	0
199267	35.741706	0
199467	35.813766	459
199667	35.885898	1
199867	35.958103	1
200067	36.030380	0
200267	36.102730	0
200467	36.175153	1
200667	36.247648	0
200867	36.320216	0
201067	36.392856	0
201267	36.465569	0
201467	36.538354	0
201667	36.611212	0
201867	36.684143	2
202067	36.757146	140
202267	36.830222	2576
202467	36.903370	4
202667	36.976591	1
202867	37.049884	4
203067	37.123250	4
203267	37.196689	2
203467	37.270200	0
203667	37.343784	1
203867	37.417440	2
204067	37.491169	1
204267	37.564970	3
204467	37.638844	1
204667	37.712791	6
204867	37.786810	209
205067	37.860901	3892
205267	37.935065	4
205467	38.009302	2
205667	38.083612	2
205867	38.157994	1
206067	38.232448	4
206267	38.306975	4
206467	38.381575	5
206667	38.456247	1
206867	38.530992	11
207067	38.605809	6
207267	38.680699	28
207467	38.755661	67374
207667	38.830696	59262
207867	38.905804	1690
208067	38.980984	897
208267	39.056237	592
208467	39.131562	435
