# Binning: 200 channels
# Deadtime Correction: on
Channel	m/z	Intensity
100	0.000226	0
300	0.000445	0
500	0.000738	0
700	0.001104	0
900	0.001544	0
1100	0.002057	0
1300	0.002644	0
1500	0.003305	0
1700	0.004039	0
1900	0.004846	0
2100	0.005727	0
2300	0.006682	0
2500	0.007710	0
2700	0.008812	0
2900	0.009987	0
3100	0.011236	1
3300	0.012559	0
3500	0.013955	0
3700	0.015424	0
3900	0.016967	0
4100	0.018584	0
4300	0.020274	0
4500	0.022038	0
4700	0.023876	0
4900	0.025786	0
5100	0.027771	0
5300	0.029829	0
5500	0.031961	0
5700	0.034166	0
5900	0.036444	0
6100	0.038797	0
6300	0.041222	0
6500	0.043722	0
6700	0.046295	0
6900	0.048941	0
7100	0.051661	0
7300	0.054455	0
7500	0.057322	0
7700	0.060263	0
7900	0.063277	0
8100	0.066365	0
8300	0.069526	0
8500	0.072761	0
8700	0.076070	0
8900	0.079452	0
9100	0.082907	0
9300	0.086437	0
9500	0.090039	0
9700	0.093716	0
9900	0.097465	0
10100	0.101289	0
10300	0.105186	0
10500	0.109156	0
10700	0.113200	0
10900	0.117318	0
11100	0.121509	0
11300	0.125774	0
11500	0.130112	0
11700	0.134524	0
11900	0.139009	0
12100	0.143568	0
12300	0.148201	0
12500	0.152907	0
12700	0.157687	0
12900	0.162540	0
13100	0.167467	0
13300	0.172467	0
13500	0.177541	0
13700	0.182688	0
13900	0.187909	0
14100	0.193204	0
14300	0.198572	0
14500	0.204013	0
14700	0.209529	0
14900	0.215117	0
15100	0.220780	0
15300	0.226516	0
15500	0.232325	0
15700	0.238208	0
15900	0.244165	0
16100	0.250195	0
16300	0.256298	0
16500	0.262476	0
16700	0.268726	0
16900	0.275051	0
17100	0.281448	0
17300	0.287920	0
17500	0.294465	0
17700	0.301083	0
17900	0.307776	0
18100	0.314541	0
18300	0.321380	0
18500	0.328293	0
18700	0.335280	0
18900	0.342339	0
19100	0.349473	0
19300	0.356680	0
19500	0.363961	0
19700	0.371315	0
19900	0.378742	0
20100	0.386244	0
20300	0.393818	0
20500	0.401467	0
20700	0.409189	0
20900	0.416984	0
21100	0.424853	0
21300	0.432796	0
21500	0.440812	0
21700	0.448901	0
21900	0.457065	0
22100	0.465302	0
22300	0.473612	0
22500	0.481996	0
22700	0.490453	0
22900	0.498984	0
23100	0.507589	0
23300	0.516267	0
23500	0.525019	0
23700	0.533844	0
23900	0.542743	0
24100	0.551715	0
24300	0.560761	0
24500	0.569881	0
24700	0.579074	0
24900	0.588340	0
25100	0.597680	0
25300	0.607094	0
25500	0.616581	0
25700	0.626142	0
25900	0.635777	0
26100	0.645484	0
26300	0.655266	0
26500	0.665121	0
26700	0.675050	0
26900	0.685052	0
27100	0.695128	0
27300	0.705277	0
27500	0.715500	0
27700	0.725796	0
27900	0.736166	0
28100	0.746609	0
28300	0.757127	0
28500	0.767717	0
28700	0.778381	0
28900	0.789119	0
29100	0.799930	1
29300	0.810815	0
29500	0.821774	0
29700	0.832806	0
29900	0.843911	0
30100	0.855090	0
30300	0.866343	0
30500	0.877669	0
30700	0.889069	0
30900	0.900542	0
31100	0.912089	0
31300	0.923709	0
31500	0.935403	0
31700	0.947171	0
31900	0.959012	0
32100	0.970926	0
32300	0.982915	0
32500	0.994976	0
32700	1.007112	24855
32900	1.019321	5
33100	1.031603	0
33300	1.043959	1
33500	1.056389	2
33700	1.068892	1
33900	1.081468	0
34100	1.094118	0
34300	1.106842	0
34500	1.119640	0
34700	1.132510	0
34900	1.145455	0
35100	1.158473	0
35300	1.171564	0
35500	1.184730	0
35700	1.197968	0
35900	1.211280	0
36100	1.224666	0
36300	1.238126	0
36500	1.251658	0
36700	1.265265	0
36900	1.278945	0
37100	1.292698	0
37300	1.306526	0
37500	1.320426	0
37700	1.334400	0
37900	1.348448	0
38100	1.362570	0
38300	1.376764	0
38500	1.391033	0
38700	1.405375	0
38900	1.419790	0
39100	1.434280	0
39300	1.448842	0
39500	1.463479	0
39700	1.478188	0
39900	1.492972	0
40100	1.507829	0
40300	1.522759	0
40500	1.537763	0
40700	1.552841	0
40900	1.567992	0
41100	1.583216	0
41300	1.598515	0
41500	1.613887	0
41700	1.629332	0
41900	1.644851	0
42100	1.660443	0
42300	1.676109	0
42500	1.691849	0
42700	1.707662	0
42900	1.723549	0
43100	1.739509	0
43300	1.755543	0
43500	1.771650	0
43700	1.787831	0
43900	1.804086	0
44100	1.820414	0
44300	1.836815	0
44500	1.853290	0
44700	1.869839	0
44900	1.886461	1
45100	1.903157	0
45300	1.919927	0
45500	1.936770	0
45700	1.953686	0
45900	1.970676	0
46100	1.987740	0
46300	2.004877	2
46500	2.022088	1053
46700	2.039372	0
46900	2.056730	0
47100	2.074161	0
47300	2.091666	0
47500	2.109245	0
47700	2.126897	0
47900	2.144622	0
48100	2.162421	0
48300	2.180294	0
48500	2.198241	0
48700	2.216260	0
48900	2.234354	0
49100	2.252521	0
49300	2.270761	0
49500	2.289075	0
49700	2.307463	0
49900	2.325924	0
50100	2.344459	0
50300	2.363067	0
50500	2.381749	0
50700	2.400504	0
50900	2.419333	0
51100	2.438236	0
51300	2.457212	0
51500	2.476262	0
51700	2.495385	0
51900	2.514582	0
52100	2.533852	0
52300	2.553196	0
52500	2.572613	0
52700	2.592104	0
52900	2.611669	0
53100	2.631307	0
53300	2.651019	0
53500	2.670804	0
53700	2.690663	0
53900	2.710595	0
54100	2.730601	0
54300	2.750680	0
54500	2.770833	0
54700	2.791060	0
54900	2.811360	0
55100	2.831733	0
55300	2.852181	0
55500	2.872701	0
55700	2.893296	0
55900	2.913964	0
56100	2.934705	0
56300	2.955520	1
56500	2.976409	0
56700	2.997371	0
56900	3.018407	170
57100	3.039516	0
57300	3.060699	0
57500	3.081955	0
57700	3.103285	0
57900	3.124688	0
58100	3.146165	0
58300	3.167716	0
58500	3.189340	0
58700	3.211038	0
58900	3.232809	0
59100	3.254654	0
59300	3.276572	0
59500	3.298564	0
59700	3.320629	0
59900	3.342768	0
60100	3.364981	0
60300	3.387267	0
60500	3.409627	0
60700	3.432060	0
60900	3.454567	0
61100	3.477147	0
61300	3.499801	0
61500	3.522529	0
61700	3.545330	0
61900	3.568204	0
62100	3.591153	0
62300	3.614174	0
62500	3.637270	0
62700	3.660438	0
62900	3.683681	0
63100	3.706997	0
63300	3.730386	0
63500	3.753849	0
63700	3.777386	0
63900	3.800996	0
64100	3.824680	0
64300	3.848437	0
64500	3.872268	0
64700	3.896172	0
64900	3.920150	0
65100	3.944202	0
65300	3.968327	0
65500	3.992525	0
65700	4.016797	0
65900	4.041143	0
66100	4.065562	0
66300	4.090055	0
66500	4.114622	0
66700	4.139262	0
66900	4.163975	0
67100	4.188762	0
67300	4.213623	0
67500	4.238557	0
67700	4.263565	0
67900	4.288646	0
68100	4.313801	0
68300	4.339029	0
68500	4.364331	0
68700	4.389707	0
68900	4.415156	0
69100	4.440679	0
69300	4.466275	0
69500	4.491945	0
69700	4.517688	0
69900	4.543505	0
70100	4.569395	0
70300	4.595359	0
70500	4.621397	0
70700	4.647508	0
70900	4.673692	0
71100	4.699951	0
71300	4.726282	0
71500	4.752688	0
71700	4.779167	0
71900	4.805719	0
72100	4.832345	0
72300	4.859045	0
72500	4.885818	0
72700	4.912664	0
72900	4.939584	0
73100	4.966578	0
73300	4.993646	0
73500	5.020786	0
73700	5.048001	0
73900	5.075289	0
74100	5.102650	0
74300	5.130086	0
74500	5.157594	0
74700	5.185176	0
74900	5.212832	0
75100	5.240562	0
75300	5.268364	0
75500	5.296241	0
75700	5.324191	0
75900	5.352215	0
76100	5.380312	0
76300	5.408482	1
76500	5.436727	0
76700	5.465044	0
76900	5.493436	0
77100	5.521901	0
77300	5.550439	0
77500	5.579051	0
77700	5.607737	0
77900	5.636496	0
78100	5.665329	0
78300	5.694235	0
78500	5.723215	0
78700	5.752268	0
78900	5.781395	0
79100	5.810595	0
79300	5.839869	0
79500	5.869217	0
79700	5.898638	0
79900	5.928133	0
80100	5.957701	0
80300	5.987343	0
80500	6.017058	11193
80700	6.046847	62
80900	6.076710	0
81100	6.106646	1
81300	6.136655	2
81500	6.166738	0
81700	6.196895	4
81900	6.227125	0
82100	6.257429	1
82300	6.287807	0
82500	6.318258	0
82700	6.348782	0
82900	6.379380	0
83100	6.410052	0
83300	6.440797	1
83500	6.471616	0
83700	6.502508	0
83900	6.533474	0
84100	6.564513	0
84300	6.595626	2
84500	6.626813	1
84700	6.658073	0
84900	6.689406	1
85100	6.720813	1
85300	6.752294	0
85500	6.783848	0
85700	6.815476	0
85900	6.847178	0
86100	6.878953	0
86300	6.910801	0
86500	6.942723	1
86700	6.974719	0
86900	7.006788	124242
87100	7.038931	3027
87300	7.071147	68
87500	7.103437	17
87700	7.135800	7
87900	7.168237	5
88100	7.200748	7
88300	7.233332	7
88500	7.265990	2
88700	7.298721	1
88900	7.331526	1
89100	7.364404	2
89300	7.397356	0
89500	7.430381	1
89700	7.463480	0
89900	7.496653	0
90100	7.529899	0
90300	7.563218	1
90500	7.596612	0
90700	7.630078	2
90900	7.663619	3
91100	7.697233	1
91300	7.730920	1
91500	7.764681	2
91700	7.798516	2
91900	7.832424	0
92100	7.866405	1
92300	7.900461	0
92500	7.934589	0
92700	7.968792	0
92900	8.003068	0
93100	8.037417	91
93300	8.071840	1
93500	8.106337	0
93700	8.140907	1
93900	8.175550	0
94100	8.210268	0
94300	8.245058	0
94500	8.279923	0
94700	8.314861	0
94900	8.349872	0
95100	8.384957	1
95300	8.420116	0
95500	8.455348	0
95700	8.490654	0
95900	8.526033	0
96100	8.561486	0
96300	8.597012	0
96500	8.632612	0
96700	8.668285	0
96900	8.704032	0
97100	8.739853	0
97300	8.775747	0
97500	8.811715	0
97700	8.847756	0
97900	8.883871	0
98100	8.920059	0
98300	8.956321	0
98500	8.992657	0
98700	9.029066	4
98900	9.065548	0
99100	9.102104	0
99300	9.138734	0
99500	9.175437	0
99700	9.212214	0
99900	9.249065	0
100100	9.285988	0
100300	9.322986	0
100500	9.360057	0
100700	9.397202	0
100900	9.434420	0
101100	9.471711	0
101300	9.509077	0
101500	9.546516	0
101700	9.584028	0
101900	9.621614	0
102100	9.659273	0
102300	9.697006	0
102500	9.734813	0
102700	9.772693	0
102900	9.810647	0
103100	9.848674	0
103300	9.886775	0
103500	9.924950	0
103700	9.963197	0
103900	10.001519	998
104100	10.039914	0
104300	10.078383	0
104500	10.116925	0
104700	10.155541	0
104900	10.194230	0
105100	10.232993	0
105300	10.271829	0
105500	10.310739	0
105700	10.349723	0
105900	10.388780	0
106100	10.427910	0
106300	10.467115	0
106500	10.506392	0
106700	10.545744	0
106900	10.585168	0
107100	10.624667	0
107300	10.664239	0
107500	10.703884	0
107700	10.743603	0
107900	10.783396	0
108100	10.823262	0
108300	10.863202	0
108500	10.903215	0
108700	10.943302	0
108900	10.983463	3
109100	11.023697	3692
109300	11.064004	1
109500	11.104385	0
109700	11.144840	0
109900	11.185368	0
110100	11.225970	1
110300	11.266645	0
110500	11.307394	0
110700	11.348217	0
110900	11.389113	0
111100	11.430082	0
111300	11.471125	0
111500	11.512242	0
111700	11.553432	0
111900	11.594696	0
112100	11.636033	0
112300	11.677444	0
112500	11.718929	0
112700	11.760487	0
112900	11.802118	0
113100	11.843823	0
113300	11.885602	0
113500	11.927454	0
113700	11.969380	19
113900	12.011379	2312
114100	12.053452	0
114300	12.095599	0
114500	12.137819	1
114700	12.180112	0
114900	12.222480	0
115100	12.264920	0
115300	12.307434	1
115500	12.350022	1
115700	12.392684	0
115900	12.435419	1
116100	12.478227	0
116300	12.521109	0
116500	12.564065	0
116700	12.607094	0
116900	12.650196	0
117100	12.693373	0
117300	12.736623	0
117500	12.779946	1
117700	12.823343	0
117900	12.866813	1
118100	12.910357	0
118300	12.953975	1
118500	12.997666	3782
118700	13.041431	93
118900	13.085269	0
119100	13.129181	0
119300	13.173166	0
119500	13.217225	0
119700	13.261358	0
119900	13.305564	0
120100	13.349843	0
120300	13.394197	1
120500	13.438623	0
120700	13.483124	0
120900	13.527697	0
121100	13.572345	0
121300	13.617066	0
121500	13.661860	0
121700	13.706728	0
121900	13.751670	0
122100	13.796685	0
122300	13.841774	0
122500	13.886936	0
122700	13.932172	0
122900	13.977481	22
123100	14.022864	14568
123300	14.068321	2
123500	14.113851	2
123700	14.159455	0
123900	14.205132	0
124100	14.250882	0
124300	14.296707	0
124500	14.342605	2
124700	14.388576	0
124900	14.434621	0
125100	14.480740	0
125300	14.526932	0
125500	14.573197	0
125700	14.619536	0
125900	14.665949	1
126100	14.712436	0
126300	14.758995	0
126500	14.805629	0
126700	14.852336	0
126900	14.899116	0
127100	14.945970	1
127300	14.992898	760
127500	15.039899	83281
127700	15.086974	34
127900	15.134122	6
128100	15.181344	9
128300	15.228640	7
128500	15.276009	4
128700	15.323451	0
128900	15.370967	1
129100	15.418557	6
129300	15.466220	2
129500	15.513957	1
129700	15.561767	2
129900	15.609651	3
130100	15.657609	2
130300	15.705640	1
130500	15.753744	1
130700	15.801922	0
130900	15.850174	1
131100	15.898499	0
131300	15.946898	3
131500	15.995370	599
131700	16.043916	1687
131900	16.092536	2
132100	16.141229	2
132300	16.189995	0
132500	16.238835	0
132700	16.287749	0
132900	16.336736	0
133100	16.385797	0
133300	16.434931	0
133500	16.484139	0
133700	16.533421	0
133900	16.582776	0
134100	16.632204	0
134300	16.681707	1
134500	16.731282	0
134700	16.780932	0
134900	16.830654	0
135100	16.880451	0
135300	16.930321	0
135500	16.980264	345
135700	17.030281	2451
135900	17.080372	3
136100	17.130536	0
136300	17.180774	1
136500	17.231085	1
136700	17.281470	0
136900	17.331928	0
137100	17.382460	0
137300	17.433065	0
137500	17.483745	0
137700	17.534497	0
137900	17.585323	0
138100	17.636223	1
138300	17.687196	0
138500	17.738243	0
138700	17.789363	1
138900	17.840557	1
139100	17.891825	1
139300	17.943166	1
139500	17.994581	453
139700	18.046069	29933
139900	18.097630	40
140100	18.149266	13
140300	18.200975	8
140500	18.252757	5
140700	18.304613	4
140900	18.356542	3
141100	18.408546	1
141300	18.460622	0
141500	18.512772	1
141700	18.564996	0
141900	18.617293	2
142100	18.669664	4
142300	18.722109	2
142500	18.774627	0
142700	18.827218	1
142900	18.879883	0
143100	18.932622	1
143300	18.985434	355
143500	19.038320	6177
143700	19.091279	4
143900	19.144312	5
144100	19.197418	2
144300	19.250598	0
144500	19.303852	1
144700	19.357179	2
144900	19.410580	2
145100	19.464054	1
145300	19.517602	1
145500	19.571223	1
145700	19.624918	1
145900	19.678686	3
146100	19.732528	2
146300	19.786444	3
146500	19.840433	3
146700	19.894495	5
146900	19.948632	0
147100	20.002841	592
147300	20.057125	3
147500	20.111482	5
147700	20.165912	3
147900	20.220416	4
148100	20.274994	4
148300	20.329645	2
148500	20.384369	3
148700	20.439168	4
148900	20.494039	9
149100	20.548985	3
149300	20.604004	6
149500	20.659096	9
149700	20.714262	4
149900	20.769502	4
150100	20.824815	2
150300	20.880201	7
150500	20.935662	3
150700	20.991195	9
150900	21.046803	17
151100	21.102484	5
151300	21.158238	6
151500	21.214066	5
151700	21.269968	4
151900	21.325943	3
152100	21.381992	9
152300	21.438114	7
152500	21.494310	6
152700	21.550579	4
152900	21.606922	1
153100	21.663338	7
153300	21.719828	3
153500	21.776392	5
153700	21.833029	5
153900	21.889740	8
154100	21.946524	17
154300	22.003382	19
154500	22.060313	14
154700	22.117318	4
154900	22.174397	4
155100	22.231549	1
155300	22.288774	3
155500	22.346073	1
155700	22.403446	2
155900	22.460892	0
156100	22.518412	1
156300	22.576006	2
156500	22.633673	0
156700	22.691413	1
156900	22.749227	0
157100	22.807115	17
157300	22.865076	3
157500	22.923111	123
157700	22.981219	4575122
157900	23.039401	303
158100	23.097656	8
158300	23.155985	49
158500	23.214388	163
158700	23.272864	353
158900	23.331413	413
159100	23.390036	327
159300	23.448733	304
159500	23.507503	238
159700	23.566347	201
159900	23.625265	147
160100	23.684256	138
160300	23.743320	101
160500	23.802458	88
160700	23.861670	73
160900	23.920955	85
161100	23.980314	21522
161300	24.039746	369
161500	24.099252	57
161700	24.158831	50
161900	24.218484	41
162100	24.278211	41
162300	24.338011	22
162500	24.397885	23
162700	24.457832	21
162900	24.517852	12
163100	24.577947	12
163300	24.638115	14
163500	24.698356	17
163700	24.758671	16
163900	24.819060	7
164100	24.879522	8
164300	24.940057	23
164500	25.000667	5717
164700	25.061349	98
164900	25.122106	12
165100	25.182935	19
165300	25.243839	17
165500	25.304816	9
165700	25.365866	11
165900	25.426991	8
166100	25.488188	10
166300	25.549459	9
166500	25.610804	11
166700	25.672223	6
166900	25.733714	3
167100	25.795280	6
167300	25.856919	3
167500	25.918631	62
167700	25.980418	6956
167900	26.042277	27573
168100	26.104210	15
168300	26.166217	5
168500	26.228298	5
168700	26.290451	7
168900	26.352679	5
169100	26.414980	13
169300	26.477354	7
169500	26.539803	7
169700	26.602324	13
169900	26.664920	11
170100	26.727588	9
170300	26.790331	7
170500	26.853147	7
170700	26.916036	78
170900	26.978999	39963
171100	27.042036	308676
171300	27.105146	140
171500	27.168329	89
171700	27.231587	44
171900	27.294918	37
172100	27.358322	27
172300	27.421800	25
172500	27.485351	35
172700	27.548976	27
172900	27.612675	29
173100	27.676447	22
173300	27.740293	28
173500	27.804212	31
173700	27.868205	48
173900	27.932271	314
174100	27.996411	120388
174300	28.060625	34158
174500	28.124912	59
174700	28.189272	44
174900	28.253706	26
175100	28.318214	22
175300	28.382795	21
175500	28.447450	13
175700	28.512179	15
175900	28.576981	14
176100	28.641856	18
176300	28.706805	27
176500	28.771828	26
176700	28.836924	26
176900	28.902094	39
177100	28.967337	28285
177300	29.032654	420387
177500	29.098044	581
177700	29.163508	195
177900	29.229046	102
178100	29.294657	75
178300	29.360341	82
178500	29.426099	52
178700	29.491931	48
178900	29.557836	23
179100	29.623815	29
179300	29.689868	42
179500	29.755994	66
179700	29.822193	48
179900	29.888466	31
180100	29.954813	3474
180300	30.021233	36618
180500	30.087727	164
180700	30.154294	46
180900	30.220935	26
181100	30.287649	19
181300	30.354437	18
181500	30.421299	19
181700	30.488234	7
181900	30.555243	19
182100	30.622325	29
182300	30.689481	8
182500	30.756710	10
182700	30.824013	14
182900	30.891389	10
183100	30.958839	1756
183300	31.026363	119259
183500	31.093960	157
183700	31.161631	84
183900	31.229375	227
184100	31.297192	90
184300	31.365084	35
184500	31.433049	23
184700	31.501087	73
184900	31.569199	108
185100	31.637385	32
185300	31.705644	24
185500	31.773976	16
185700	31.842383	20
185900	31.910862	14
186100	31.979416	283
186300	32.048043	2475
186500	32.116743	9
186700	32.185517	10
186900	32.254365	7
187100	32.323286	15
187300	32.392280	4
187500	32.461349	15
187700	32.530490	10
187900	32.599706	9
188100	32.668995	2
188300	32.738357	4
188500	32.807793	5
188700	32.877303	3
188900	32.946886	17
189100	33.016543	1057
189300	33.086273	24
189500	33.156077	8
189700	33.225954	4
189900	33.295905	15
190100	33.365929	39
190300	33.436027	82
190500	33.506199	13
190700	33.576444	6
190900	33.646763	9
191100	33.717155	3
191300	33.787621	1
191500	33.858160	6
191700	33.928773	7
191900	33.999460	370
192100	34.070220	16
192300	34.141053	7
192500	34.211960	6
192700	34.282941	4
192900	34.353995	7
193100	34.425123	8
193300	34.496325	5
193500	34.567600	5
193700	34.638948	14
193900	34.710370	8
194100	34.781866	8
194300	34.853435	7
194500	34.925078	10
194700	34.996794	541
194900	35.068584	34
195100	35.140447	7
195300	35.212384	12
195500	35.284395	8
195700	35.356479	10
195900	35.428636	4
196100	35.500867	13
196300	35.573172	9
196500	35.645550	5
196700	35.718002	7
196900	35.790528	10
197100	35.863127	8
197300	35.935799	11
197500	36.008545	679
197700	36.081365	20
197900	36.154258	6
198100	36.227225	11
198300	36.300265	8
198500	36.373379	17
198700	36.446566	6
198900	36.519827	6
199100	36.593162	12
199300	36.666570	5
199500	36.740051	6
199700	36.813607	10
199900	36.887235	52
200100	36.960938	999
200300	37.034714	4065
200500	37.108563	18
200700	37.182486	14
200900	37.256483	11
201100	37.330553	13
201300	37.404696	15
201500	37.478913	12
201700	37.553204	12
201900	37.627569	11
202100	37.702006	10
202300	37.776518	19
202500	37.851103	15
202700	37.925761	101
202900	38.000493	13825
203100	38.075299	55
203300	38.150178	26
203500	38.225131	18
203700	38.300157	23
203900	38.375257	20
204100	38.450431	18
204300	38.525678	22
204500	38.600998	20
204700	38.676392	19
204900	38.751860	37
205100	38.827401	85
205300	38.903016	4770
205500	38.978704	4098512
205700	39.054466	2282
205900	39.130302	551
206100	39.206211	1009
