# Binning: 200 channels
# Deadtime Correction: on
Channel	m/z	Intensity
100	0.000265	0
300	0.000495	0
500	0.000795	0
700	0.001165	0
900	0.001607	0
1100	0.002119	0
1300	0.002702	0
1500	0.003356	0
1700	0.004081	0
1900	0.004876	0
2100	0.005742	0
2300	0.006679	0
2500	0.007687	0
2700	0.008765	0
2900	0.009915	0
3100	0.011135	0
3300	0.012425	0
3500	0.013787	0
3700	0.015219	0
3900	0.016722	0
4100	0.018296	0
4300	0.019941	0
4500	0.021656	0
4700	0.023442	0
4900	0.025299	0
5100	0.027227	0
5300	0.029226	0
5500	0.031295	0
5700	0.033435	0
5900	0.035646	0
6100	0.037927	0
6300	0.040280	0
6500	0.042703	0
6700	0.045196	0
6900	0.047761	0
7100	0.050397	0
7300	0.053103	0
7500	0.055880	0
7700	0.058727	0
7900	0.061646	0
8100	0.064635	0
8300	0.067695	0
8500	0.070826	0
8700	0.074028	0
8900	0.077300	0
9100	0.080643	0
9300	0.084057	0
9500	0.087541	0
9700	0.091097	0
9900	0.094723	0
10100	0.098420	0
10300	0.102188	0
10500	0.106026	0
10700	0.109936	0
10900	0.113916	0
11100	0.117966	0
11300	0.122088	0
11500	0.126280	0
11700	0.130543	0
11900	0.134877	0
12100	0.139282	0
12300	0.143757	0
12500	0.148304	0
12700	0.152921	1
12900	0.157608	0
13100	0.162367	0
13300	0.167196	0
13500	0.172096	0
13700	0.177067	0
13900	0.182109	0
14100	0.187221	0
14300	0.192404	0
14500	0.197658	0
14700	0.202983	0
14900	0.208378	0
15100	0.213844	0
15300	0.219381	0
15500	0.224989	0
15700	0.230668	0
15900	0.236417	0
16100	0.242237	0
16300	0.248128	0
16500	0.254089	0
16700	0.260122	0
16900	0.266225	0
17100	0.272399	0
17300	0.278643	0
17500	0.284959	0
17700	0.291345	0
17900	0.297802	0
18100	0.304330	0
18300	0.310928	0
18500	0.317598	0
18700	0.324338	0
18900	0.331149	0
19100	0.338030	0
19300	0.344983	0
19500	0.352006	0
19700	0.359100	0
19900	0.366264	0
20100	0.373500	0
20300	0.380806	0
20500	0.388183	0
20700	0.395631	0
20900	0.403149	0
21100	0.410739	0
21300	0.418399	0
21500	0.426130	0
21700	0.433931	0
21900	0.441804	0
22100	0.449747	0
22300	0.457761	0
22500	0.465845	0
22700	0.474001	0
22900	0.482227	0
23100	0.490524	0
23300	0.498892	0
23500	0.507330	0
23700	0.515840	0
23900	0.524420	0
24100	0.533071	0
24300	0.541792	0
24500	0.550585	0
24700	0.559448	0
24900	0.568382	0
25100	0.577387	0
25300	0.586462	0
25500	0.595608	0
25700	0.604825	0
25900	0.614113	0
26100	0.623472	0
26300	0.632901	1
26500	0.642401	0
26700	0.651972	0
26900	0.661614	0
27100	0.671326	0
27300	0.681109	0
27500	0.690963	0
27700	0.700888	0
27900	0.710883	0
28100	0.720950	0
28300	0.731087	0
28500	0.741294	0
28700	0.751573	0
28900	0.761922	0
29100	0.772342	0
29300	0.782833	0
29500	0.793395	0
29700	0.804027	0
29900	0.814731	0
30100	0.825505	0
30300	0.836349	0
30500	0.847265	0
30700	0.858251	0
30900	0.869308	0
31100	0.880436	0
31300	0.891635	0
31500	0.902904	0
31700	0.914244	0
31900	0.925655	0
32100	0.937137	0
32300	0.948689	0
32500	0.960312	0
32700	0.972006	1
32900	0.983771	0
33100	0.995606	0
33300	1.007513	12477
33500	1.019490	3
33700	1.031538	0
33900	1.043656	1
34100	1.055846	0
34300	1.068106	0
34500	1.080437	0
34700	1.092838	0
34900	1.105311	0
35100	1.117854	0
35300	1.130468	0
35500	1.143153	0
35700	1.155908	0
35900	1.168735	0
36100	1.181632	0
36300	1.194599	0
36500	1.207638	0
36700	1.220747	0
36900	1.233928	0
37100	1.247178	0
37300	1.260500	0
37500	1.273893	0
37700	1.287356	0
37900	1.300890	0
38100	1.314495	0
38300	1.328170	0
38500	1.341916	0
38700	1.355733	0
38900	1.369621	0
39100	1.383580	0
39300	1.397609	0
39500	1.411709	0
39700	1.425880	0
39900	1.440122	0
40100	1.454435	0
40300	1.468818	0
40500	1.483272	0
40700	1.497797	0
40900	1.512392	0
41100	1.527058	0
41300	1.541796	0
41500	1.556603	0
41700	1.571482	0
41900	1.586431	0
42100	1.601452	0
42300	1.616543	0
42500	1.631704	0
42700	1.646937	0
42900	1.662240	0
43100	1.677614	0
43300	1.693059	0
43500	1.708574	0
43700	1.724161	0
43900	1.739818	0
44100	1.755546	0
44300	1.771344	0
44500	1.787214	0
44700	1.803154	0
44900	1.819165	0
45100	1.835246	1
45300	1.851399	0
45500	1.867622	0
45700	1.883916	0
45900	1.900281	0
46100	1.916717	0
46300	1.933223	0
46500	1.949800	0
46700	1.966448	0
46900	1.983167	0
47100	1.999956	0
47300	2.016816	783
47500	2.033747	1
47700	2.050749	0
47900	2.067821	0
48100	2.084965	0
48300	2.102179	0
48500	2.119464	0
48700	2.136819	0
48900	2.154245	0
49100	2.171743	1
49300	2.189310	0
49500	2.206949	0
49700	2.224659	0
49900	2.242439	0
50100	2.260290	0
50300	2.278211	0
50500	2.296204	0
50700	2.314267	0
50900	2.332401	0
51100	2.350606	0
51300	2.368882	0
51500	2.387228	0
51700	2.405645	0
51900	2.424133	0
52100	2.442692	0
52300	2.461321	0
52500	2.480021	1
52700	2.498792	0
52900	2.517634	0
53100	2.536547	0
53300	2.555530	0
53500	2.574584	0
53700	2.593709	0
53900	2.612904	0
54100	2.632171	0
54300	2.651508	0
54500	2.670916	0
54700	2.690395	0
54900	2.709944	0
55100	2.729564	0
55300	2.749255	0
55500	2.769017	0
55700	2.788849	0
55900	2.808753	0
56100	2.828727	0
56300	2.848772	0
56500	2.868887	0
56700	2.889074	0
56900	2.909331	0
57100	2.929659	0
57300	2.950057	0
57500	2.970527	0
57700	2.991067	0
57900	3.011678	27
58100	3.032360	207
58300	3.053112	0
58500	3.073936	0
58700	3.094830	1
58900	3.115795	0
59100	3.136830	0
59300	3.157937	0
59500	3.179114	0
59700	3.200362	0
59900	3.221680	0
60100	3.243070	0
60300	3.264530	0
60500	3.286061	0
60700	3.307663	0
60900	3.329336	1
61100	3.351079	0
61300	3.372893	0
61500	3.394778	0
61700	3.416733	0
61900	3.438760	0
62100	3.460857	0
62300	3.483025	0
62500	3.505264	0
62700	3.527573	0
62900	3.549953	0
63100	3.572404	0
63300	3.594926	0
63500	3.617519	0
63700	3.640182	0
63900	3.662916	0
64100	3.685721	0
64300	3.708597	0
64500	3.731543	0
64700	3.754560	0
64900	3.777648	0
65100	3.800807	0
65300	3.824036	0
65500	3.847337	0
65700	3.870708	0
65900	3.894150	0
66100	3.917662	0
66300	3.941245	0
66500	3.964900	0
66700	3.988624	0
66900	4.012420	0
67100	4.036287	0
67300	4.060224	0
67500	4.084232	0
67700	4.108310	0
67900	4.132460	0
68100	4.156680	0
68300	4.180971	0
68500	4.205333	0
68700	4.229766	0
68900	4.254269	0
69100	4.278843	0
69300	4.303488	0
69500	4.328204	0
69700	4.352990	0
69900	4.377847	0
70100	4.402775	0
70300	4.427774	0
70500	4.452844	0
70700	4.477984	0
70900	4.503195	0
71100	4.528477	0
71300	4.553829	0
71500	4.579253	0
71700	4.604747	0
71900	4.630312	0
72100	4.655947	0
72300	4.681654	0
72500	4.707431	0
72700	4.733279	0
72900	4.759198	0
73100	4.785187	0
73300	4.811248	0
73500	4.837379	0
73700	4.863581	0
73900	4.889853	0
74100	4.916197	0
74300	4.942611	0
74500	4.969096	0
74700	4.995651	0
74900	5.022278	0
75100	5.048975	0
75300	5.075743	0
75500	5.102582	0
75700	5.129491	0
75900	5.156472	0
76100	5.183523	0
76300	5.210644	0
76500	5.237837	0
76700	5.265100	0
76900	5.292435	0
77100	5.319840	0
77300	5.347315	0
77500	5.374862	0
77700	5.402479	0
77900	5.430167	0
78100	5.457926	0
78300	5.485755	0
78500	5.513656	0
78700	5.541627	0
78900	5.569669	0
79100	5.597781	0
79300	5.625965	0
79500	5.654219	1
79700	5.682544	0
79900	5.710939	0
80100	5.739406	0
80300	5.767943	0
80500	5.796551	0
80700	5.825230	0
80900	5.853979	0
81100	5.882800	0
81300	5.911691	0
81500	5.940653	0
81700	5.969685	0
81900	5.998789	152
82100	6.027963	1778
82300	6.057208	10
82500	6.086524	0
82700	6.115910	0
82900	6.145367	0
83100	6.174895	0
83300	6.204494	0
83500	6.234164	0
83700	6.263904	0
83900	6.293715	0
84100	6.323597	0
84300	6.353550	1
84500	6.383573	0
84700	6.413667	0
84900	6.443832	0
85100	6.474068	0
85300	6.504375	0
85500	6.534752	0
85700	6.565200	0
85900	6.595719	0
86100	6.626308	0
86300	6.656969	0
86500	6.687700	1
86700	6.718502	0
86900	6.749374	0
87100	6.780318	1
87300	6.811332	0
87500	6.842417	0
87700	6.873573	0
87900	6.904799	0
88100	6.936096	0
88300	6.967464	0
88500	6.998903	6121
88700	7.030413	16793
88900	7.061993	57
89100	7.093644	13
89300	7.125366	7
89500	7.157159	5
89700	7.189022	1
89900	7.220957	5
90100	7.252961	0
90300	7.285037	1
90500	7.317184	1
90700	7.349401	1
90900	7.381689	0
91100	7.414048	0
91300	7.446478	0
91500	7.478978	0
91700	7.511549	1
91900	7.544191	0
92100	7.576904	0
92300	7.609687	1
92500	7.642541	0
92700	7.675466	1
92900	7.708462	1
93100	7.741529	0
93300	7.774666	0
93500	7.807874	0
93700	7.841153	0
93900	7.874502	0
94100	7.907923	0
94300	7.941414	1
94500	7.974976	1
94700	8.008609	18
94900	8.042312	4
95100	8.076086	0
95300	8.109931	1
95500	8.143847	0
95700	8.177834	0
95900	8.211891	0
96100	8.246019	0
96300	8.280218	0
96500	8.314487	1
96700	8.348828	0
96900	8.383239	0
97100	8.417721	0
97300	8.452274	0
97500	8.486897	0
97700	8.521591	0
97900	8.556356	0
98100	8.591192	0
98300	8.626099	0
98500	8.661076	0
98700	8.696124	0
98900	8.731243	0
99100	8.766433	0
99300	8.801693	0
99500	8.837024	0
99700	8.872426	0
99900	8.907899	0
100100	8.943442	0
100300	8.979057	0
100500	9.014742	5
100700	9.050497	1
100900	9.086324	0
101100	9.122221	0
101300	9.158189	0
101500	9.194228	0
101700	9.230338	0
101900	9.266518	0
102100	9.302769	0
102300	9.339091	0
102500	9.375484	0
102700	9.411948	0
102900	9.448482	0
103100	9.485087	0
103300	9.521763	0
103500	9.558509	0
103700	9.595327	0
103900	9.632215	0
104100	9.669174	0
104300	9.706203	0
104500	9.743304	0
104700	9.780475	0
104900	9.817717	0
105100	9.855030	0
105300	9.892413	0
105500	9.929867	0
105700	9.967392	0
105900	10.004988	473
106100	10.042655	1
106300	10.080392	0
106500	10.118200	0
106700	10.156079	0
106900	10.194029	0
107100	10.232049	0
107300	10.270140	0
107500	10.308302	0
107700	10.346535	0
107900	10.384839	0
108100	10.423213	1
108300	10.461658	0
108500	10.500174	0
108700	10.538760	0
108900	10.577418	0
109100	10.616146	0
109300	10.654945	0
109500	10.693815	0
109700	10.732755	0
109900	10.771766	0
110100	10.810848	0
110300	10.850001	0
110500	10.889224	0
110700	10.928519	0
110900	10.967884	1
111100	11.007320	1767
111300	11.046826	1
111500	11.086404	0
111700	11.126052	0
111900	11.165771	0
112100	11.205560	0
112300	11.245421	0
112500	11.285352	0
112700	11.325354	0
112900	11.365427	0
113100	11.405570	0
113300	11.445785	0
113500	11.486070	0
113700	11.526426	0
113900	11.566852	0
114100	11.607350	0
114300	11.647918	0
114500	11.688557	0
114700	11.729266	0
114900	11.770047	0
115100	11.810898	0
115300	11.851820	0
115500	11.892813	0
115700	11.933876	0
115900	11.975011	43
116100	12.016216	2060
116300	12.057492	0
116500	12.098838	0
116700	12.140256	0
116900	12.181744	0
117100	12.223303	0
117300	12.264933	0
117500	12.306633	0
117700	12.348404	0
117900	12.390246	0
118100	12.432159	0
118300	12.474143	0
118500	12.516197	0
118700	12.558322	0
118900	12.600518	1
119100	12.642785	1
119300	12.685122	0
119500	12.727530	0
119700	12.770009	0
119900	12.812559	0
120100	12.855179	0
120300	12.897871	0
120500	12.940633	1
120700	12.983465	272
120900	13.026369	2734
121100	13.069343	1
121300	13.112388	0
121500	13.155504	0
121700	13.198691	0
121900	13.241948	0
122100	13.285276	0
122300	13.328675	0
122500	13.372145	0
122700	13.415686	1
122900	13.459297	0
123100	13.502979	0
123300	13.546732	0
123500	13.590555	0
123700	13.634450	0
123900	13.678415	0
124100	13.722451	0
124300	13.766557	0
124500	13.810735	0
124700	13.854983	0
124900	13.899302	0
125100	13.943692	0
125300	13.988152	117
125500	14.032683	8427
125700	14.077286	0
125900	14.121958	0
126100	14.166702	0
126300	14.211516	0
126500	14.256401	0
126700	14.301357	0
126900	14.346384	0
127100	14.391481	1
127300	14.436650	1
127500	14.481889	0
127700	14.527198	0
127900	14.572579	1
128100	14.618030	0
128300	14.663552	0
128500	14.709145	0
128700	14.754809	0
128900	14.800543	0
129100	14.846348	0
129300	14.892224	0
129500	14.938171	1
129700	14.984188	71
129900	15.030276	46491
130100	15.076435	38
130300	15.122665	15
130500	15.168966	3
130700	15.215337	4
130900	15.261779	3
131100	15.308292	1
131300	15.354876	0
131500	15.401530	1
131700	15.448255	1
131900	15.495051	0
132100	15.541918	0
132300	15.588855	1
132500	15.635863	0
132700	15.682942	1
132900	15.730092	0
133100	15.777313	1
133300	15.824604	1
133500	15.871966	0
133700	15.919399	0
133900	15.966903	17
134100	16.014477	1457
134300	16.062122	4
134500	16.109838	0
134700	16.157625	0
134900	16.205482	0
135100	16.253410	1
135300	16.301409	0
135500	16.349479	0
135700	16.397620	0
135900	16.445831	0
136100	16.494113	0
136300	16.542466	0
136500	16.590890	0
136700	16.639384	0
136900	16.687949	0
137100	16.736585	0
137300	16.785292	0
137500	16.834069	0
137700	16.882918	0
137900	16.931837	0
138100	16.980826	303
138300	17.029887	881
138500	17.079018	2
138700	17.128220	0
138900	17.177493	1
139100	17.226837	0
139300	17.276251	0
139500	17.325737	0
139700	17.375293	0
139900	17.424919	0
140100	17.474617	0
140300	17.524385	0
140500	17.574224	0
140700	17.624134	0
140900	17.674114	0
141100	17.724166	0
141300	17.774288	0
141500	17.824481	0
141700	17.874744	0
141900	17.925079	0
142100	17.975484	3
142300	18.025960	11271
142500	18.076507	81
142700	18.127124	11
142900	18.177813	4
143100	18.228572	2
143300	18.279401	6
143500	18.330302	3
143700	18.381273	1
143900	18.432315	2
144100	18.483428	0
144300	18.534612	2
144500	18.585866	0
144700	18.637192	1
144900	18.688588	1
145100	18.740054	2
145300	18.791592	2
145500	18.843200	1
145700	18.894879	2
145900	18.946629	1
146100	18.998450	4647
146300	19.050341	113
146500	19.102303	6
146700	19.154336	4
146900	19.206440	2
147100	19.258614	2
147300	19.310859	2
147500	19.363175	2
147700	19.415562	1
147900	19.468020	1
148100	19.520548	0
148300	19.573147	0
148500	19.625817	0
148700	19.678557	2
148900	19.731369	2
149100	19.784251	3
149300	19.837204	3
149500	19.890228	1
149700	19.943322	0
149900	19.996487	193
150100	20.049723	4
150300	20.103030	0
150500	20.156408	1
150700	20.209856	0
150900	20.263375	0
151100	20.316965	5
151300	20.370625	2
151500	20.424357	2
151700	20.478159	3
151900	20.532032	5
152100	20.585976	1
152300	20.639990	2
152500	20.694075	5
152700	20.748231	7
152900	20.802458	7
153100	20.856756	8
153300	20.911124	3
153500	20.965563	5
153700	21.020073	19
153900	21.074653	5
154100	21.129305	4
154300	21.184027	2
154500	21.238820	4
154700	21.293684	7
154900	21.348618	6
155100	21.403623	5
155300	21.458699	3
155500	21.513846	3
155700	21.569064	6
155900	21.624352	3
156100	21.679711	7
156300	21.735141	3
156500	21.790642	8
156700	21.846213	5
156900	21.901855	7
157100	21.957568	17
157300	22.013352	8
157500	22.069206	4
157700	22.125132	1
157900	22.181128	2
158100	22.237194	0
158300	22.293332	1
158500	22.349540	0
158700	22.405819	3
158900	22.462169	1
159100	22.518590	0
159300	22.575081	0
159500	22.631644	18
159700	22.688277	20
159900	22.744980	0
160100	22.801755	410
160300	22.858600	45
160500	22.915516	252
160700	22.972503	4591475
160900	23.029561	1513
161100	23.086689	20
161300	23.143888	191
161500	23.201158	725
161700	23.258499	1424
161900	23.315910	1660
162100	23.373392	1489
162300	23.430945	1280
162500	23.488569	1049
162700	23.546263	836
162900	23.604029	696
163100	23.661865	524
163300	23.719772	489
163500	23.777749	403
163700	23.835797	337
163900	23.893917	271
164100	23.952106	1509
164300	24.010367	13926
164500	24.068699	232
164700	24.127101	173
164900	24.185574	157
165100	24.244118	127
165300	24.302732	100
165500	24.361417	92
165700	24.420173	97
165900	24.479000	78
166100	24.537898	66
166300	24.596866	42
166500	24.655905	68
166700	24.715015	55
166900	24.774196	46
167100	24.833447	43
167300	24.892770	37
167500	24.952163	172
167700	25.011626	3696
167900	25.071161	63
168100	25.130766	44
168300	25.190442	33
168500	25.250189	38
168700	25.310007	29
168900	25.369895	27
169100	25.429854	16
169300	25.489884	18
169500	25.549985	28
169700	25.610156	25
169900	25.670399	21
170100	25.730712	18
170300	25.791095	25
170500	25.851550	16
170700	25.912075	48
170900	25.972671	3219
171100	26.033338	17412
171300	26.094076	24
171500	26.154884	21
171700	26.215763	23
171900	26.276713	15
172100	26.337734	13
172300	26.398825	9
172500	26.459988	11
172700	26.521221	12
172900	26.582524	6
173100	26.643899	10
173300	26.705344	6
173500	26.766860	7
173700	26.828447	18
173900	26.890105	16
174100	26.951833	19418
174300	27.013632	219081
174500	27.075502	392
174700	27.137443	78
174900	27.199455	49
175100	27.261537	36
175300	27.323690	35
175500	27.385914	20
175700	27.448208	18
175900	27.510574	22
176100	27.573010	25
176300	27.635517	17
176500	27.698094	18
176700	27.760743	14
176900	27.823462	21
177100	27.886252	29
177300	27.949112	26012
177500	28.012044	42148
177700	28.075046	146
177900	28.138119	34
178100	28.201263	37
178300	28.264478	10
178500	28.327763	15
178700	28.391119	12
178900	28.454546	8
179100	28.518044	6
179300	28.581612	8
179500	28.645251	11
179700	28.708961	11
179900	28.772742	16
180100	28.836593	29
180300	28.900516	41
180500	28.964509	8408
180700	29.028573	283233
180900	29.092707	580
181100	29.156912	132
181300	29.221189	67
181500	29.285535	63
181700	29.349953	53
181900	29.414442	35
182100	29.479001	16
182300	29.543631	26
182500	29.608331	16
182700	29.673103	19
182900	29.737945	33
183100	29.802858	24
183300	29.867842	32
183500	29.932897	54
183700	29.998022	6011
183900	30.063218	17947
184100	30.128485	40
184300	30.193823	15
184500	30.259231	10
184700	30.324711	14
184900	30.390260	5
185100	30.455881	10
185300	30.521573	8
185500	30.587335	19
185700	30.653168	12
185900	30.719072	17
186100	30.785047	2
186300	30.851092	9
186500	30.917208	20
186700	30.983395	16480
186900	31.049653	54432
187100	31.115981	59
187300	31.182380	94
187500	31.248850	102
187700	31.315391	21
187900	31.382003	20
188100	31.448685	21
188300	31.515438	66
188500	31.582262	30
188700	31.649157	7
188900	31.716122	6
189100	31.783158	5
189300	31.850265	17
189500	31.917443	11
189700	31.984691	247
189900	32.052010	1339
190100	32.119400	4
190300	32.186861	5
190500	32.254393	6
190700	32.321995	15
190900	32.389668	9
191100	32.457412	16
191300	32.525227	7
191500	32.593112	3
191700	32.661068	3
191900	32.729095	5
192100	32.797193	7
192300	32.865361	5
192500	32.933601	2
192700	33.001911	547
192900	33.070291	150
193100	33.138743	7
193300	33.207265	3
193500	33.275858	6
193700	33.344522	17
193900	33.413257	43
194100	33.482062	14
194300	33.550938	9
194500	33.619885	1
194700	33.688903	5
194900	33.757992	2
195100	33.827151	8
195300	33.896381	1
195500	33.965682	16
195700	34.035053	95
195900	34.104496	0
196100	34.174009	5
196300	34.243593	6
196500	34.313247	5
196700	34.382973	8
196900	34.452769	6
197100	34.522636	10
197300	34.592573	4
197500	34.662582	2
197700	34.732661	2
197900	34.802811	3
198100	34.873032	6
198300	34.943324	53
198500	35.013686	580
198700	35.084119	4
198900	35.154623	5
199100	35.225198	5
199300	35.295843	4
199500	35.366559	3
199700	35.437346	3
199900	35.508204	9
200100	35.579133	3
200300	35.650132	5
200500	35.721202	0
200700	35.792343	1
200900	35.863554	3
201100	35.934837	10
201300	36.006190	792
201500	36.077614	10
201700	36.149108	4
201900	36.220674	6
202100	36.292310	3
202300	36.364017	8
202500	36.435795	3
202700	36.507643	7
202900	36.579562	2
203100	36.651553	4
203300	36.723613	3
203500	36.795745	8
203700	36.867947	13
203900	36.940220	504
204100	37.012564	3033
204300	37.084979	7
204500	37.157465	9
204700	37.230021	8
204900	37.302648	6
205100	37.375346	8
205300	37.448114	6
205500	37.520953	5
205700	37.593863	6
205900	37.666844	11
206100	37.739896	7
206300	37.813018	5
206500	37.886211	13
206700	37.959475	657
