# Binning: 200 channels
# Deadtime Correction: on
Channel	m/z	Intensity
100	0.000268	0
300	0.000498	0
500	0.000799	0
700	0.001171	0
900	0.001613	0
1100	0.002127	0
1300	0.002711	0
1500	0.003365	0
1700	0.004091	0
1900	0.004887	0
2100	0.005754	0
2300	0.006692	0
2500	0.007700	0
2700	0.008780	0
2900	0.009930	0
3100	0.011151	0
3300	0.012442	0
3500	0.013805	0
3700	0.015238	0
3900	0.016742	0
4100	0.018317	0
4300	0.019962	0
4500	0.021678	0
4700	0.023465	0
4900	0.025323	0
5100	0.027251	0
5300	0.029251	0
5500	0.031321	0
5700	0.033462	0
5900	0.035673	0
6100	0.037955	0
6300	0.040309	0
6500	0.042732	0
6700	0.045227	0
6900	0.047792	0
7100	0.050429	0
7300	0.053136	0
7500	0.055913	0
7700	0.058762	0
7900	0.061681	0
8100	0.064671	0
8300	0.067732	0
8500	0.070863	0
8700	0.074065	0
8900	0.077338	0
9100	0.080682	0
9300	0.084097	0
9500	0.087582	0
9700	0.091138	0
9900	0.094765	0
10100	0.098463	0
10300	0.102231	0
10500	0.106070	0
10700	0.109980	0
10900	0.113961	0
11100	0.118012	0
11300	0.122134	0
11500	0.126327	0
11700	0.130591	0
11900	0.134926	0
12100	0.139331	0
12300	0.143807	0
12500	0.148354	0
12700	0.152971	0
12900	0.157659	0
13100	0.162419	0
13300	0.167248	0
13500	0.172149	0
13700	0.177120	0
13900	0.182163	0
14100	0.187275	0
14300	0.192459	0
14500	0.197714	0
14700	0.203039	0
14900	0.208435	0
15100	0.213901	0
15300	0.219439	0
15500	0.225047	0
15700	0.230726	0
15900	0.236476	0
16100	0.242297	0
16300	0.248188	0
16500	0.254150	0
16700	0.260183	0
16900	0.266286	0
17100	0.272461	0
17300	0.278706	0
17500	0.285022	0
17700	0.291408	0
17900	0.297866	0
18100	0.304394	0
18300	0.310993	0
18500	0.317663	0
18700	0.324403	0
18900	0.331214	0
19100	0.338096	0
19300	0.345049	0
19500	0.352073	0
19700	0.359167	0
19900	0.366332	0
20100	0.373568	0
20300	0.380875	0
20500	0.388252	0
20700	0.395700	0
20900	0.403219	0
21100	0.410809	0
21300	0.418469	0
21500	0.426200	0
21700	0.434002	0
21900	0.441875	0
22100	0.449818	0
22300	0.457833	0
22500	0.465918	0
22700	0.474073	0
22900	0.482300	0
23100	0.490597	0
23300	0.498965	0
23500	0.507404	0
23700	0.515914	0
23900	0.524494	0
24100	0.533145	0
24300	0.541867	0
24500	0.550660	0
24700	0.559523	0
24900	0.568457	0
25100	0.577462	0
25300	0.586538	0
25500	0.595684	0
25700	0.604902	0
25900	0.614190	0
26100	0.623548	0
26300	0.632978	0
26500	0.642478	0
26700	0.652049	0
26900	0.661691	0
27100	0.671404	0
27300	0.681187	0
27500	0.691041	0
27700	0.700966	0
27900	0.710962	0
28100	0.721028	0
28300	0.731165	0
28500	0.741373	0
28700	0.751652	0
28900	0.762001	0
29100	0.772422	0
29300	0.782913	0
29500	0.793474	0
29700	0.804107	0
29900	0.814810	0
30100	0.825584	0
30300	0.836429	0
30500	0.847345	0
30700	0.858331	0
30900	0.869388	0
31100	0.880516	0
31300	0.891715	0
31500	0.902984	0
31700	0.914324	0
31900	0.925735	0
32100	0.937217	0
32300	0.948769	0
32500	0.960393	0
32700	0.972087	0
32900	0.983851	0
33100	0.995687	0
33300	1.007593	12463
33500	1.019570	3
33700	1.031618	0
33900	1.043737	2
34100	1.055926	0
34300	1.068186	0
34500	1.080517	0
34700	1.092918	0
34900	1.105391	0
35100	1.117934	0
35300	1.130548	0
35500	1.143233	0
35700	1.155988	0
35900	1.168814	0
36100	1.181711	0
36300	1.194679	0
36500	1.207718	0
36700	1.220827	0
36900	1.234007	0
37100	1.247258	0
37300	1.260579	0
37500	1.273972	0
37700	1.287435	0
37900	1.300969	0
38100	1.314573	0
38300	1.328249	0
38500	1.341995	0
38700	1.355812	0
38900	1.369699	0
39100	1.383658	0
39300	1.397687	0
39500	1.411787	0
39700	1.425958	0
39900	1.440199	0
40100	1.454511	0
40300	1.468894	0
40500	1.483348	0
40700	1.497873	0
40900	1.512468	0
41100	1.527134	0
41300	1.541871	0
41500	1.556679	0
41700	1.571557	0
41900	1.586506	0
42100	1.601526	0
42300	1.616617	0
42500	1.631778	0
42700	1.647011	0
42900	1.662313	0
43100	1.677687	0
43300	1.693132	0
43500	1.708647	0
43700	1.724233	1
43900	1.739890	0
44100	1.755617	0
44300	1.771416	0
44500	1.787285	0
44700	1.803225	0
44900	1.819235	0
45100	1.835317	0
45300	1.851469	0
45500	1.867692	0
45700	1.883985	0
45900	1.900350	0
46100	1.916785	0
46300	1.933291	0
46500	1.949868	0
46700	1.966515	0
46900	1.983233	0
47100	2.000022	1
47300	2.016882	879
47500	2.033813	0
47700	2.050814	0
47900	2.067886	0
48100	2.085029	0
48300	2.102243	0
48500	2.119527	0
48700	2.136882	0
48900	2.154308	0
49100	2.171805	0
49300	2.189372	0
49500	2.207010	0
49700	2.224719	0
49900	2.242499	0
50100	2.260349	0
50300	2.278271	0
50500	2.296263	0
50700	2.314326	0
50900	2.332459	0
51100	2.350663	0
51300	2.368938	0
51500	2.387284	0
51700	2.405701	0
51900	2.424188	0
52100	2.442746	0
52300	2.461375	0
52500	2.480075	0
52700	2.498845	0
52900	2.517687	0
53100	2.536599	0
53300	2.555581	0
53500	2.574635	0
53700	2.593759	0
53900	2.612954	0
54100	2.632220	0
54300	2.651556	0
54500	2.670964	0
54700	2.690442	0
54900	2.709990	0
55100	2.729610	0
55300	2.749300	0
55500	2.769062	0
55700	2.788893	0
55900	2.808796	0
56100	2.828770	0
56300	2.848814	0
56500	2.868929	0
56700	2.889114	0
56900	2.909371	0
57100	2.929698	0
57300	2.950096	0
57500	2.970565	0
57700	2.991104	0
57900	3.011715	7
58100	3.032396	206
58300	3.053148	0
58500	3.073970	0
58700	3.094864	0
58900	3.115828	0
59100	3.136863	0
59300	3.157968	0
59500	3.179145	0
59700	3.200392	0
59900	3.221710	0
60100	3.243098	0
60300	3.264558	0
60500	3.286088	0
60700	3.307689	0
60900	3.329361	0
61100	3.351103	0
61300	3.372917	0
61500	3.394801	0
61700	3.416756	0
61900	3.438781	1
62100	3.460878	0
62300	3.483045	0
62500	3.505282	0
62700	3.527591	0
62900	3.549971	0
63100	3.572421	0
63300	3.594942	0
63500	3.617533	0
63700	3.640196	0
63900	3.662929	0
64100	3.685733	0
64300	3.708608	0
64500	3.731553	0
64700	3.754570	0
64900	3.777657	0
65100	3.800814	0
65300	3.824043	0
65500	3.847342	0
65700	3.870712	0
65900	3.894153	0
66100	3.917665	0
66300	3.941247	0
66500	3.964901	0
66700	3.988624	0
66900	4.012419	0
67100	4.036285	0
67300	4.060221	0
67500	4.084228	0
67700	4.108306	0
67900	4.132454	0
68100	4.156673	0
68300	4.180963	0
68500	4.205324	0
68700	4.229756	0
68900	4.254258	0
69100	4.278831	0
69300	4.303475	0
69500	4.328190	0
69700	4.352975	0
69900	4.377831	0
70100	4.402758	0
70300	4.427756	0
70500	4.452824	0
70700	4.477964	0
70900	4.503174	0
71100	4.528454	0
71300	4.553806	0
71500	4.579228	0
71700	4.604721	0
71900	4.630285	0
72100	4.655919	0
72300	4.681625	0
72500	4.707401	0
72700	4.733248	0
72900	4.759165	0
73100	4.785154	0
73300	4.811213	0
73500	4.837343	0
73700	4.863544	0
73900	4.889815	0
74100	4.916157	0
74300	4.942570	0
74500	4.969054	0
74700	4.995608	0
74900	5.022234	0
75100	5.048930	0
75300	5.075696	0
75500	5.102534	0
75700	5.129442	0
75900	5.156421	0
76100	5.183471	0
76300	5.210592	0
76500	5.237783	0
76700	5.265045	0
76900	5.292378	0
77100	5.319782	0
77300	5.347256	0
77500	5.374802	0
77700	5.402418	0
77900	5.430104	0
78100	5.457862	0
78300	5.485690	0
78500	5.513589	0
78700	5.541559	0
78900	5.569600	0
79100	5.597711	0
79300	5.625893	0
79500	5.654146	0
79700	5.682469	0
79900	5.710864	0
80100	5.739329	0
80300	5.767865	0
80500	5.796471	0
80700	5.825149	0
80900	5.853897	0
81100	5.882716	0
81300	5.911606	0
81500	5.940566	0
81700	5.969598	0
81900	5.998700	137
82100	6.027872	2648
82300	6.057116	7
82500	6.086430	0
82700	6.115815	0
82900	6.145271	0
83100	6.174798	0
83300	6.204395	0
83500	6.234063	0
83700	6.263802	0
83900	6.293612	0
84100	6.323492	0
84300	6.353443	0
84500	6.383465	0
84700	6.413558	0
84900	6.443722	0
85100	6.473956	0
85300	6.504261	0
85500	6.534637	0
85700	6.565083	1
85900	6.595600	1
86100	6.626189	0
86300	6.656847	1
86500	6.687577	1
86700	6.718377	0
86900	6.749248	0
87100	6.780190	0
87300	6.811203	0
87500	6.842286	0
87700	6.873441	0
87900	6.904666	1
88100	6.935961	0
88300	6.967328	0
88500	6.998765	5166
88700	7.030273	27700
88900	7.061852	76
89100	7.093501	19
89300	7.125222	16
89500	7.157013	9
89700	7.188874	3
89900	7.220807	5
90100	7.252810	1
90300	7.284885	0
90500	7.317029	0
90700	7.349245	1
90900	7.381532	0
91100	7.413889	1
91300	7.446317	0
91500	7.478815	0
91700	7.511385	0
91900	7.544025	0
92100	7.576736	0
92300	7.609518	0
92500	7.642370	3
92700	7.675294	0
92900	7.708288	0
93100	7.741353	0
93300	7.774488	0
93500	7.807694	1
93700	7.840972	0
93900	7.874319	1
94100	7.907738	0
94300	7.941228	0
94500	7.974788	1
94700	8.008419	26
94900	8.042120	3
95100	8.075893	0
95300	8.109736	0
95500	8.143650	0
95700	8.177635	0
95900	8.211690	0
96100	8.245817	0
96300	8.280014	0
96500	8.314281	0
96700	8.348620	0
96900	8.383029	0
97100	8.417510	0
97300	8.452060	0
97500	8.486682	0
97700	8.521374	0
97900	8.556138	0
98100	8.590972	0
98300	8.625876	0
98500	8.660852	0
98700	8.695898	0
98900	8.731015	0
99100	8.766203	0
99300	8.801461	0
99500	8.836790	0
99700	8.872191	0
99900	8.907661	0
100100	8.943203	0
100300	8.978815	0
100500	9.014498	2
100700	9.050252	0
100900	9.086077	0
101100	9.121972	0
101300	9.157938	0
101500	9.193975	0
101700	9.230083	0
101900	9.266261	0
102100	9.302511	0
102300	9.338831	0
102500	9.375221	0
102700	9.411683	0
102900	9.448215	0
103100	9.484818	0
103300	9.521492	0
103500	9.558237	0
103700	9.595052	0
103900	9.631938	0
104100	9.668895	0
104300	9.705923	0
104500	9.743021	0
104700	9.780190	0
104900	9.817430	0
105100	9.854741	0
105300	9.892122	0
105500	9.929574	0
105700	9.967097	0
105900	10.004691	402
106100	10.042356	0
106300	10.080091	0
106500	10.117897	0
106700	10.155774	0
106900	10.193721	0
107100	10.231740	0
107300	10.269829	0
107500	10.307989	0
107700	10.346219	0
107900	10.384521	0
108100	10.422893	0
108300	10.461336	0
108500	10.499849	0
108700	10.538434	0
108900	10.577089	0
109100	10.615815	0
109300	10.654612	0
109500	10.693479	0
109700	10.732417	0
109900	10.771426	0
110100	10.810506	0
110300	10.849657	0
110500	10.888878	0
110700	10.928170	0
110900	10.967533	2
111100	11.006967	1460
111300	11.046471	0
111500	11.086046	0
111700	11.125692	0
111900	11.165409	0
112100	11.205196	0
112300	11.245054	0
112500	11.284983	0
112700	11.324983	0
112900	11.365054	0
113100	11.405195	0
113300	11.445407	0
113500	11.485690	0
113700	11.526043	0
113900	11.566467	0
114100	11.606963	0
114300	11.647528	0
114500	11.688165	0
114700	11.728872	0
114900	11.769651	0
115100	11.810499	0
115300	11.851419	0
115500	11.892410	0
115700	11.933471	0
115900	11.974603	73
116100	12.015805	2182
116300	12.057079	0
116500	12.098423	0
116700	12.139838	0
116900	12.181324	0
117100	12.222880	0
117300	12.264508	0
117500	12.306206	0
117700	12.347975	0
117900	12.389814	0
118100	12.431725	0
118300	12.473706	0
118500	12.515758	0
118700	12.557880	0
118900	12.600074	0
119100	12.642338	0
119300	12.684673	0
119500	12.727079	0
119700	12.769555	0
119900	12.812102	0
120100	12.854720	0
120300	12.897409	0
120500	12.940169	0
120700	12.982999	276
120900	13.025900	2885
121100	13.068872	2
121300	13.111915	0
121500	13.155028	0
121700	13.198212	0
121900	13.241467	0
122100	13.284793	0
122300	13.328189	0
122500	13.371656	0
122700	13.415194	0
122900	13.458803	0
123100	13.502482	0
123300	13.546233	0
123500	13.590054	0
123700	13.633945	0
123900	13.677908	0
124100	13.721941	0
124300	13.766045	0
124500	13.810220	0
124700	13.854466	0
124900	13.898782	0
125100	13.943169	0
125300	13.987627	119
125500	14.032156	8097
125700	14.076755	0
125900	14.121425	0
126100	14.166166	1
126300	14.210978	0
126500	14.255860	2
126700	14.300814	0
126900	14.345838	0
127100	14.390932	0
127300	14.436098	0
127500	14.481334	0
127700	14.526641	0
127900	14.572019	0
128100	14.617468	0
128300	14.662987	0
128500	14.708577	0
128700	14.754238	0
128900	14.799970	0
129100	14.845772	1
129300	14.891645	1
129500	14.937589	1
129700	14.983604	63
129900	15.029689	37397
130100	15.075845	33
130300	15.122072	9
130500	15.168370	7
130700	15.214739	3
130900	15.261178	2
131100	15.307688	5
131300	15.354269	1
131500	15.400920	0
131700	15.447643	2
131900	15.494436	0
132100	15.541300	1
132300	15.588234	0
132500	15.635240	0
132700	15.682316	0
132900	15.729463	0
133100	15.776681	0
133300	15.823969	0
133500	15.871328	0
133700	15.918758	0
133900	15.966259	24
134100	16.013831	1250
134300	16.061473	3
134500	16.109186	0
134700	16.156970	0
134900	16.204824	0
135100	16.252750	1
135300	16.300746	1
135500	16.348813	0
135700	16.396950	0
135900	16.445159	0
136100	16.493438	0
136300	16.541788	0
136500	16.590208	0
136700	16.638700	0
136900	16.687262	0
137100	16.735895	1
137300	16.784599	0
137500	16.833373	0
137700	16.882219	0
137900	16.931135	0
138100	16.980121	259
138300	17.029179	737
138500	17.078307	0
138700	17.127506	1
138900	17.176776	0
139100	17.226117	0
139300	17.275528	0
139500	17.325010	0
139700	17.374563	0
139900	17.424187	0
140100	17.473881	0
140300	17.523647	0
140500	17.573483	0
140700	17.623389	0
140900	17.673367	0
141100	17.723415	0
141300	17.773534	0
141500	17.823724	0
141700	17.873985	0
141900	17.924316	0
142100	17.974718	3
142300	18.025191	8352
142500	18.075734	50
142700	18.126349	6
142900	18.177034	3
143100	18.227790	1
143300	18.278617	2
143500	18.329514	0
143700	18.380482	0
143900	18.431521	0
144100	18.482631	2
144300	18.533811	0
144500	18.585063	0
144700	18.636385	1
144900	18.687777	0
145100	18.739241	0
145300	18.790775	2
145500	18.842380	0
145700	18.894056	0
145900	18.945803	0
146100	18.997620	3602
146300	19.049508	101
146500	19.101467	3
146700	19.153497	4
146900	19.205597	1
147100	19.257769	0
147300	19.310011	1
147500	19.362323	0
147700	19.414707	0
147900	19.467161	1
148100	19.519686	0
148300	19.572282	1
148500	19.624948	1
148700	19.677686	0
148900	19.730494	1
149100	19.783373	1
149300	19.836322	0
149500	19.889343	5
149700	19.942434	3
149900	19.995596	213
150100	20.048828	7
150300	20.102132	1
150500	20.155506	0
150700	20.208951	0
150900	20.262467	2
151100	20.316053	2
151300	20.369710	3
151500	20.423438	4
151700	20.477237	4
151900	20.531107	2
152100	20.585047	2
152300	20.639058	1
152500	20.693140	4
152700	20.747292	9
152900	20.801516	4
153100	20.855810	5
153300	20.910175	7
153500	20.964610	4
153700	21.019117	11
153900	21.073694	6
154100	21.128342	1
154300	21.183061	4
154500	21.237850	4
154700	21.292710	2
154900	21.347641	0
155100	21.402643	3
155300	21.457716	10
155500	21.512859	2
155700	21.568073	5
155900	21.623358	2
156100	21.678714	3
156300	21.734140	5
156500	21.789637	3
156700	21.845205	4
156900	21.900844	8
157100	21.956553	11
157300	22.012333	6
157500	22.068184	4
157700	22.124106	1
157900	22.180098	3
158100	22.236162	3
158300	22.292296	4
158500	22.348500	1
158700	22.404776	2
158900	22.461122	0
159100	22.517539	0
159300	22.574027	0
159500	22.630586	16
159700	22.687215	20
159900	22.743915	2
160100	22.800686	269
160300	22.857528	41
160500	22.914440	172
160700	22.971423	4404835
160900	23.028477	38688
161100	23.085602	297
161300	23.142797	849
161500	23.200064	1744
161700	23.257401	2117
161900	23.314808	1859
162100	23.372287	1570
162300	23.429836	1223
162500	23.487456	918
162700	23.545147	738
162900	23.602909	621
163100	23.660741	538
163300	23.718644	428
163500	23.776618	361
163700	23.834663	277
163900	23.892778	246
164100	23.950964	830
164300	24.009221	9924
164500	24.067549	204
164700	24.125947	156
164900	24.184416	138
165100	24.242956	95
165300	24.301567	99
165500	24.360249	86
165700	24.419001	91
165900	24.477824	67
166100	24.536718	78
166300	24.595682	59
166500	24.654718	64
166700	24.713824	49
166900	24.773001	43
167100	24.832248	35
167300	24.891567	27
167500	24.950956	106
167700	25.010416	2918
167900	25.069947	48
168100	25.129548	23
168300	25.189220	27
168500	25.248963	27
168700	25.308777	20
168900	25.368661	19
169100	25.428617	20
169300	25.488643	10
169500	25.548740	21
169700	25.608907	20
169900	25.669145	22
170100	25.729455	7
170300	25.789834	19
170500	25.850285	13
170700	25.910806	38
170900	25.971399	2316
171100	26.032062	15336
171300	26.092795	16
171500	26.153600	18
171700	26.214475	11
171900	26.275421	9
172100	26.336438	13
172300	26.397525	8
172500	26.458683	10
172700	26.519912	8
172900	26.581212	3
173100	26.642583	7
173300	26.704024	6
173500	26.765536	5
173700	26.827119	15
173900	26.888773	4
174100	26.950497	12370
174300	27.012292	167848
174500	27.074158	390
174700	27.136095	89
174900	27.198102	33
175100	27.260180	29
175300	27.322329	23
175500	27.384549	17
175700	27.446840	24
175900	27.509201	10
176100	27.571633	13
176300	27.634136	21
176500	27.696709	17
176700	27.759354	12
176900	27.822069	13
177100	27.884855	19
177300	27.947711	19028
177500	28.010639	31693
177700	28.073637	149
177900	28.136706	28
178100	28.199845	27
178300	28.263056	13
178500	28.326337	11
178700	28.389689	19
178900	28.453112	8
179100	28.516605	8
179300	28.580169	7
179500	28.643804	16
179700	28.707510	11
179900	28.771287	17
180100	28.835134	23
180300	28.899052	23
180500	28.963041	6579
180700	29.027101	197045
180900	29.091231	482
181100	29.155432	101
181300	29.219704	43
181500	29.284047	51
181700	29.348460	29
181900	29.412944	23
182100	29.477499	14
182300	29.542125	14
182500	29.606821	18
182700	29.671589	15
182900	29.736427	36
183100	29.801336	20
183300	29.866315	20
183500	29.931365	33
183700	29.996486	4553
183900	30.061678	11754
184100	30.126941	21
184300	30.192274	13
184500	30.257678	14
184700	30.323153	12
184900	30.388699	4
185100	30.454315	8
185300	30.520003	8
185500	30.585760	12
185700	30.651589	10
185900	30.717489	11
186100	30.783459	5
186300	30.849500	10
186500	30.915612	11
186700	30.981794	6672
186900	31.048048	51125
187100	31.114372	73
187300	31.180766	85
187500	31.247232	49
187700	31.313768	17
187900	31.380376	10
188100	31.447053	14
188300	31.513802	45
188500	31.580622	20
188700	31.647512	12
188900	31.714473	12
189100	31.781504	8
189300	31.848607	15
189500	31.915780	5
189700	31.983024	182
189900	32.050339	1049
190100	32.117724	3
190300	32.185181	10
190500	32.252708	2
190700	32.320306	4
190900	32.387974	5
191100	32.455714	12
191300	32.523524	4
191500	32.591405	4
191700	32.659356	2
191900	32.727379	3
192100	32.795472	1
192300	32.863636	1
192500	32.931870	1
192700	33.000176	401
192900	33.068552	174
193100	33.136999	1
193300	33.205517	1
193500	33.274105	3
193700	33.342765	27
193900	33.411495	21
194100	33.480296	6
194300	33.549167	5
194500	33.618110	2
194700	33.687123	3
194900	33.756207	1
195100	33.825361	1
195300	33.894587	2
195500	33.963883	14
195700	34.033250	90
195900	34.102687	5
196100	34.172196	2
196300	34.241775	3
196500	34.311425	3
196700	34.381146	3
196900	34.450937	4
197100	34.520800	4
197300	34.590733	4
197500	34.660736	2
197700	34.730811	1
197900	34.800956	3
198100	34.871173	2
198300	34.941459	39
198500	35.011817	413
198700	35.082245	9
198900	35.152745	6
199100	35.223315	5
199300	35.293955	6
199500	35.364667	0
199700	35.435449	7
199900	35.506302	3
200100	35.577226	1
200300	35.648220	5
200500	35.719285	2
200700	35.790421	2
200900	35.861628	7
201100	35.932906	3
201300	36.004254	675
201500	36.075673	4
201700	36.147163	5
201900	36.218724	5
202100	36.290355	5
202300	36.362057	7
202500	36.433830	2
202700	36.505674	6
202900	36.577588	5
203100	36.649574	2
203300	36.721630	3
203500	36.793756	1
203700	36.865954	16
203900	36.938222	475
204100	37.010561	2890
204300	37.082971	12
204500	37.155452	7
204700	37.228003	7
204900	37.300625	5
205100	37.373318	5
205300	37.446081	12
205500	37.518916	3
205700	37.591821	5
205900	37.664797	1
206100	37.737844	3
206300	37.810961	7
206500	37.884149	11
206700	37.957408	553
