# Binning: 200 channels
# Deadtime Correction: on
Channel	m/z	Intensity
100	0.000234	0
300	0.000451	0
500	0.000740	0
700	0.001099	0
900	0.001530	0
1100	0.002031	0
1300	0.002603	0
1500	0.003246	0
1700	0.003960	0
1900	0.004745	0
2100	0.005601	0
2300	0.006528	0
2500	0.007526	0
2700	0.008594	0
2900	0.009734	0
3100	0.010944	0
3300	0.012226	0
3500	0.013578	0
3700	0.015002	0
3900	0.016496	0
4100	0.018061	0
4300	0.019697	0
4500	0.021404	0
4700	0.023182	0
4900	0.025031	0
5100	0.026951	0
5300	0.028941	0
5500	0.031003	0
5700	0.033136	0
5900	0.035339	0
6100	0.037614	0
6300	0.039959	0
6500	0.042375	0
6700	0.044862	0
6900	0.047421	0
7100	0.050050	0
7300	0.052750	0
7500	0.055521	0
7700	0.058362	0
7900	0.061275	0
8100	0.064259	0
8300	0.067313	0
8500	0.070439	0
8700	0.073635	0
8900	0.076903	0
9100	0.080241	0
9300	0.083650	0
9500	0.087131	0
9700	0.090682	0
9900	0.094304	0
10100	0.097997	0
10300	0.101761	0
10500	0.105595	0
10700	0.109501	0
10900	0.113478	0
11100	0.117525	0
11300	0.121644	0
11500	0.125833	0
11700	0.130094	0
11900	0.134425	0
12100	0.138827	0
12300	0.143300	0
12500	0.147844	0
12700	0.152459	0
12900	0.157145	0
13100	0.161902	0
13300	0.166730	0
13500	0.171629	0
13700	0.176598	0
13900	0.181639	0
14100	0.186750	0
14300	0.191933	0
14500	0.197186	0
14700	0.202510	0
14900	0.207905	0
15100	0.213372	0
15300	0.218909	0
15500	0.224517	0
15700	0.230195	0
15900	0.235945	0
16100	0.241766	0
16300	0.247658	0
16500	0.253620	0
16700	0.259654	0
16900	0.265758	0
17100	0.271934	0
17300	0.278180	0
17500	0.284497	0
17700	0.290885	0
17900	0.297344	0
18100	0.303874	0
18300	0.310475	0
18500	0.317147	0
18700	0.323890	0
18900	0.330704	0
19100	0.337588	0
19300	0.344544	0
19500	0.351570	0
19700	0.358668	0
19900	0.365836	0
20100	0.373075	0
20300	0.380386	0
20500	0.387767	0
20700	0.395219	0
20900	0.402742	0
21100	0.410336	0
21300	0.418000	0
21500	0.425736	0
21700	0.433543	0
21900	0.441420	0
22100	0.449369	0
22300	0.457388	0
22500	0.465479	0
22700	0.473640	0
22900	0.481872	0
23100	0.490176	0
23300	0.498550	0
23500	0.506995	0
23700	0.515511	0
23900	0.524097	0
24100	0.532755	0
24300	0.541484	0
24500	0.550284	0
24700	0.559154	0
24900	0.568096	0
25100	0.577108	0
25300	0.586191	0
25500	0.595346	0
25700	0.604571	0
25900	0.613867	0
26100	0.623234	0
26300	0.632672	0
26500	0.642181	0
26700	0.651761	0
26900	0.661412	0
27100	0.671133	0
27300	0.680926	0
27500	0.690790	0
27700	0.700724	0
27900	0.710729	0
28100	0.720806	0
28300	0.730953	0
28500	0.741171	0
28700	0.751460	0
28900	0.761820	0
29100	0.772251	0
29300	0.782753	0
29500	0.793326	0
29700	0.803970	0
29900	0.814684	0
30100	0.825470	0
30300	0.836326	0
30500	0.847254	0
30700	0.858252	0
30900	0.869321	0
31100	0.880462	0
31300	0.891673	0
31500	0.902955	0
31700	0.914308	1
31900	0.925732	0
32100	0.937227	0
32300	0.948792	0
32500	0.960429	0
32700	0.972137	0
32900	0.983915	0
33100	0.995765	0
33300	1.007685	9505
33500	1.019677	13
33700	1.031739	0
33900	1.043872	0
34100	1.056076	0
34300	1.068351	0
34500	1.080697	0
34700	1.093114	0
34900	1.105602	0
35100	1.118161	0
35300	1.130790	0
35500	1.143491	0
35700	1.156262	0
35900	1.169105	0
36100	1.182018	0
36300	1.195002	0
36500	1.208058	0
36700	1.221184	0
36900	1.234381	0
37100	1.247649	0
37300	1.260988	0
37500	1.274398	0
37700	1.287878	0
37900	1.301430	0
38100	1.315053	0
38300	1.328746	0
38500	1.342511	0
38700	1.356346	0
38900	1.370253	0
39100	1.384230	0
39300	1.398278	0
39500	1.412397	0
39700	1.426587	0
39900	1.440848	0
40100	1.455180	0
40300	1.469583	0
40500	1.484057	0
40700	1.498601	0
40900	1.513217	0
41100	1.527904	0
41300	1.542661	0
41500	1.557489	0
41700	1.572389	0
41900	1.587359	0
42100	1.602400	0
42300	1.617512	0
42500	1.632695	0
42700	1.647949	0
42900	1.663274	0
43100	1.678670	0
43300	1.694137	0
43500	1.709674	0
43700	1.725283	0
43900	1.740962	0
44100	1.756713	0
44300	1.772534	0
44500	1.788426	0
44700	1.804390	0
44900	1.820424	0
45100	1.836529	0
45300	1.852705	0
45500	1.868952	0
45700	1.885269	0
45900	1.901658	0
46100	1.918118	0
46300	1.934649	0
46500	1.951250	0
46700	1.967923	0
46900	1.984666	0
47100	2.001480	0
47300	2.018366	428
47500	2.035322	0
47700	2.052349	0
47900	2.069447	0
48100	2.086616	0
48300	2.103856	1
48500	2.121166	1
48700	2.138548	0
48900	2.156001	0
49100	2.173524	0
49300	2.191119	0
49500	2.208784	0
49700	2.226521	0
49900	2.244328	0
50100	2.262206	0
50300	2.280155	0
50500	2.298175	0
50700	2.316266	0
50900	2.334428	0
51100	2.352661	0
51300	2.370965	0
51500	2.389340	0
51700	2.407785	0
51900	2.426302	0
52100	2.444889	0
52300	2.463548	0
52500	2.482277	1
52700	2.501077	0
52900	2.519949	0
53100	2.538891	0
53300	2.557904	0
53500	2.576988	0
53700	2.596143	0
53900	2.615368	0
54100	2.634665	0
54300	2.654033	0
54500	2.673471	0
54700	2.692981	0
54900	2.712561	0
55100	2.732213	0
55300	2.751935	0
55500	2.771728	0
55700	2.791592	0
55900	2.811528	0
56100	2.831534	0
56300	2.851610	0
56500	2.871758	0
56700	2.891977	0
56900	2.912267	0
57100	2.932627	0
57300	2.953059	0
57500	2.973562	0
57700	2.994135	0
57900	3.014779	77
58100	3.035495	2
58300	3.056281	0
58500	3.077138	0
58700	3.098066	0
58900	3.119065	0
59100	3.140135	0
59300	3.161276	0
59500	3.182487	0
59700	3.203770	0
59900	3.225124	0
60100	3.246548	0
60300	3.268044	0
60500	3.289610	0
60700	3.311247	0
60900	3.332956	0
61100	3.354735	0
61300	3.376585	0
61500	3.398506	0
61700	3.420498	0
61900	3.442561	0
62100	3.464694	0
62300	3.486899	0
62500	3.509175	0
62700	3.531521	0
62900	3.553939	0
63100	3.576427	0
63300	3.598987	0
63500	3.621617	0
63700	3.644318	0
63900	3.667090	0
64100	3.689933	0
64300	3.712847	0
64500	3.735832	0
64700	3.758888	0
64900	3.782015	0
65100	3.805213	0
65300	3.828481	0
65500	3.851821	0
65700	3.875231	0
65900	3.898713	0
66100	3.922265	0
66300	3.945888	0
66500	3.969582	0
66700	3.993347	0
66900	4.017183	0
67100	4.041090	0
67300	4.065068	0
67500	4.089117	0
67700	4.113237	0
67900	4.137427	0
68100	4.161689	0
68300	4.186022	0
68500	4.210425	0
68700	4.234899	0
68900	4.259445	0
69100	4.284061	0
69300	4.308748	0
69500	4.333506	0
69700	4.358335	0
69900	4.383235	0
70100	4.408206	0
70300	4.433248	0
70500	4.458360	0
70700	4.483544	0
70900	4.508799	0
71100	4.534124	0
71300	4.559520	0
71500	4.584988	0
71700	4.610526	0
71900	4.636135	0
72100	4.661815	0
72300	4.687566	0
72500	4.713388	0
72700	4.739281	0
72900	4.765245	0
73100	4.791280	0
73300	4.817385	0
73500	4.843562	0
73700	4.869810	0
73900	4.896128	0
74100	4.922517	0
74300	4.948978	0
74500	4.975509	0
74700	5.002111	0
74900	5.028784	0
75100	5.055528	0
75300	5.082343	0
75500	5.109229	0
75700	5.136186	0
75900	5.163213	0
76100	5.190312	0
76300	5.217482	0
76500	5.244722	0
76700	5.272034	0
76900	5.299416	0
77100	5.326869	0
77300	5.354393	0
77500	5.381989	0
77700	5.409655	0
77900	5.437392	0
78100	5.465199	0
78300	5.493078	0
78500	5.521028	0
78700	5.549049	0
78900	5.577140	0
79100	5.605303	0
79300	5.633536	0
79500	5.661841	0
79700	5.690216	1
79900	5.718662	0
80100	5.747179	0
80300	5.775767	0
80500	5.804427	0
80700	5.833156	0
80900	5.861957	0
81100	5.890829	0
81300	5.919772	0
81500	5.948785	0
81700	5.977870	0
81900	6.007026	223
82100	6.036252	9
82300	6.065549	1
82500	6.094918	0
82700	6.124357	0
82900	6.153867	1
83100	6.183448	0
83300	6.213100	0
83500	6.242823	0
83700	6.272617	0
83900	6.302482	0
84100	6.332417	0
84300	6.362424	0
84500	6.392501	0
84700	6.422650	0
84900	6.452869	0
85100	6.483160	0
85300	6.513521	0
85500	6.543953	0
85700	6.574456	0
85900	6.605030	0
86100	6.635675	0
86300	6.666391	0
86500	6.697178	0
86700	6.728036	0
86900	6.758964	0
87100	6.789964	0
87300	6.821034	0
87500	6.852176	0
87700	6.883388	0
87900	6.914671	0
88100	6.946026	0
88300	6.977451	1
88500	7.008947	2582
88700	7.040514	111
88900	7.072152	13
89100	7.103861	1
89300	7.135640	1
89500	7.167491	4
89700	7.199413	2
89900	7.231405	0
90100	7.263469	0
90300	7.295603	0
90500	7.327808	0
90700	7.360085	1
90900	7.392432	0
91100	7.424850	1
91300	7.457339	0
91500	7.489899	1
91700	7.522530	0
91900	7.555232	0
92100	7.588004	0
92300	7.620848	0
92500	7.653763	0
92700	7.686748	0
92900	7.719805	0
93100	7.752932	1
93300	7.786130	0
93500	7.819400	0
93700	7.852740	0
93900	7.886151	0
94100	7.919633	0
94300	7.953186	0
94500	7.986810	0
94700	8.020504	0
94900	8.054270	0
95100	8.088107	0
95300	8.122014	0
95500	8.155993	0
95700	8.190042	0
95900	8.224163	0
96100	8.258354	0
96300	8.292616	0
96500	8.326949	0
96700	8.361353	0
96900	8.395828	0
97100	8.430374	0
97300	8.464991	0
97500	8.499679	0
97700	8.534437	0
97900	8.569267	0
98100	8.604168	0
98300	8.639139	0
98500	8.674181	0
98700	8.709295	0
98900	8.744479	0
99100	8.779734	0
99300	8.815060	0
99500	8.850457	0
99700	8.885925	0
99900	8.921464	0
100100	8.957074	0
100300	8.992755	0
100500	9.028506	0
100700	9.064329	0
100900	9.100222	0
101100	9.136187	0
101300	9.172222	0
101500	9.208328	0
101700	9.244506	0
101900	9.280754	0
102100	9.317073	0
102300	9.353463	0
102500	9.389924	0
102700	9.426455	0
102900	9.463058	0
103100	9.499732	0
103300	9.536477	0
103500	9.573292	0
103700	9.610179	0
103900	9.647136	0
104100	9.684164	0
104300	9.721264	0
104500	9.758434	0
104700	9.795675	0
104900	9.832987	0
105100	9.870370	0
105300	9.907824	0
105500	9.945348	0
105700	9.982944	0
105900	10.020611	57
106100	10.058348	0
106300	10.096157	0
106500	10.134036	0
106700	10.171987	0
106900	10.210008	0
107100	10.248100	0
107300	10.286263	0
107500	10.324498	0
107700	10.362803	0
107900	10.401178	0
108100	10.439625	0
108300	10.478143	0
108500	10.516732	0
108700	10.555391	0
108900	10.594122	0
109100	10.632923	0
109300	10.671796	0
109500	10.710739	0
109700	10.749753	0
109900	10.788839	0
110100	10.827995	0
110300	10.867222	0
110500	10.906520	0
110700	10.945889	0
110900	10.985328	1
111100	11.024839	214
111300	11.064421	0
111500	11.104073	0
111700	11.143797	0
111900	11.183591	0
112100	11.223457	0
112300	11.263393	0
112500	11.303400	0
112700	11.343478	0
112900	11.383628	0
113100	11.423848	0
113300	11.464139	0
113500	11.504500	0
113700	11.544933	0
113900	11.585437	0
114100	11.626012	0
114300	11.666657	0
114500	11.707374	0
114700	11.748161	0
114900	11.789019	0
115100	11.829949	0
115300	11.870949	0
115500	11.912020	0
115700	11.953162	3
115900	11.994375	4386
116100	12.035659	16
116300	12.077014	0
116500	12.118439	1
116700	12.159936	0
116900	12.201504	0
117100	12.243142	0
117300	12.284852	0
117500	12.326632	0
117700	12.368483	0
117900	12.410406	0
118100	12.452399	0
118300	12.494463	0
118500	12.536598	0
118700	12.578804	0
118900	12.621081	0
119100	12.663429	0
119300	12.705847	0
119500	12.748337	0
119700	12.790898	0
119900	12.833529	0
120100	12.876231	1
120300	12.919005	0
120500	12.961849	0
120700	13.004764	2608
120900	13.047750	6
121100	13.090807	0
121300	13.133935	0
121500	13.177134	0
121700	13.220404	0
121900	13.263745	0
122100	13.307157	0
122300	13.350639	1
122500	13.394193	0
122700	13.437817	0
122900	13.481513	1
123100	13.525279	0
123300	13.569116	0
123500	13.613024	0
123700	13.657004	0
123900	13.701054	0
124100	13.745175	0
124300	13.789366	0
124500	13.833629	0
124700	13.877963	0
124900	13.922368	0
125100	13.966843	1
125300	14.011390	3919
125500	14.056007	5
125700	14.100696	0
125900	14.145455	1
126100	14.190285	0
126300	14.235186	0
126500	14.280158	0
126700	14.325201	0
126900	14.370315	1
127100	14.415500	0
127300	14.460756	0
127500	14.506083	0
127700	14.551480	0
127900	14.596949	0
128100	14.642488	0
128300	14.688099	0
128500	14.733780	0
128700	14.779532	0
128900	14.825355	0
129100	14.871249	0
129300	14.917215	1
129500	14.963251	1
129700	15.009357	16083
129900	15.055535	40
130100	15.101784	2
130300	15.148104	2
130500	15.194494	1
130700	15.240956	3
130900	15.287488	3
131100	15.334092	0
131300	15.380766	1
131500	15.427511	0
131700	15.474327	1
131900	15.521214	0
132100	15.568172	0
132300	15.615201	0
132500	15.662301	1
132700	15.709472	1
132900	15.756714	0
133100	15.804026	0
133300	15.851410	0
133500	15.898864	1
133700	15.946390	0
133900	15.993986	286
134100	16.041653	338
134300	16.089392	0
134500	16.137201	0
134700	16.185081	0
134900	16.233032	0
135100	16.281054	0
135300	16.329146	0
135500	16.377310	0
135700	16.425545	0
135900	16.473851	0
136100	16.522227	0
136300	16.570675	0
136500	16.619193	0
136700	16.667782	0
136900	16.716442	0
137100	16.765174	0
137300	16.813976	0
137500	16.862849	0
137700	16.911793	0
137900	16.960808	0
138100	17.009893	415
138300	17.059050	19
138500	17.108278	0
138700	17.157576	0
138900	17.206946	0
139100	17.256386	0
139300	17.305898	0
139500	17.355480	0
139700	17.405133	0
139900	17.454857	0
140100	17.504652	0
140300	17.554518	0
140500	17.604455	0
140700	17.654463	0
140900	17.704542	0
141100	17.754691	0
141300	17.804912	0
141500	17.855204	0
141700	17.905566	1
141900	17.956000	1
142100	18.006504	503
142300	18.057079	3341
142500	18.107725	17
142700	18.158442	4
142900	18.209230	2
143100	18.260089	1
143300	18.311019	1
143500	18.362020	0
143700	18.413092	0
143900	18.464234	0
144100	18.515448	0
144300	18.566733	1
144500	18.618088	0
144700	18.669514	0
144900	18.721012	1
145100	18.772580	0
145300	18.824219	1
145500	18.875929	0
145700	18.927710	0
145900	18.979562	85
146100	19.031485	3660
146300	19.083479	3
146500	19.135543	2
146700	19.187679	0
146900	19.239886	1
147100	19.292163	0
147300	19.344511	0
147500	19.396931	0
147700	19.449421	0
147900	19.501982	0
148100	19.554614	0
148300	19.607317	0
148500	19.660091	1
148700	19.712936	0
148900	19.765852	1
149100	19.818839	0
149300	19.871896	0
149500	19.925025	0
149700	19.978225	41
149900	20.031495	4
150100	20.084836	1
150300	20.138249	0
150500	20.191732	0
150700	20.245286	1
150900	20.298911	0
151100	20.352607	0
151300	20.406374	0
151500	20.460212	0
151700	20.514121	0
151900	20.568100	0
152100	20.622151	0
152300	20.676273	0
152500	20.730465	0
152700	20.784729	0
152900	20.839063	0
153100	20.893468	1
153300	20.947944	0
153500	21.002492	8
153700	21.057110	2
153900	21.111799	0
154100	21.166558	1
154300	21.221389	0
154500	21.276291	1
154700	21.331264	0
154900	21.386307	0
155100	21.441422	0
155300	21.496607	0
155500	21.551864	1
155700	21.607191	0
155900	21.662589	0
156100	21.718058	0
156300	21.773599	0
156500	21.829210	0
156700	21.884892	0
156900	21.940644	0
157100	21.996468	3
157300	22.052363	1
157500	22.108329	0
157700	22.164365	0
157900	22.220473	0
158100	22.276651	0
158300	22.332900	1
158500	22.389221	1
158700	22.445612	0
158900	22.502074	0
159100	22.558607	0
159300	22.615211	0
159500	22.671886	0
159700	22.728632	1
159900	22.785449	1
160100	22.842336	1
160300	22.899295	54
160500	22.956324	1502
160700	23.013425	1133382
160900	23.070596	7654
161100	23.127839	3801
161300	23.185152	2475
161500	23.242536	1564
161700	23.299991	1017
161900	23.357517	753
162100	23.415114	504
162300	23.472782	435
162500	23.530521	338
162700	23.588331	244
162900	23.646211	214
163100	23.704163	179
163300	23.762185	162
163500	23.820279	105
163700	23.878443	102
163900	23.936678	77
164100	23.994985	2264
164300	24.053362	89
164500	24.111810	54
164700	24.170329	42
164900	24.228919	47
165100	24.287580	41
165300	24.346311	27
165500	24.405114	21
165700	24.463988	29
165900	24.522932	18
166100	24.581948	12
166300	24.641034	20
166500	24.700192	19
166700	24.759420	9
166900	24.818719	11
167100	24.878089	7
167300	24.937530	10
167500	24.997042	1326
167700	25.056625	25
167900	25.116279	9
168100	25.176004	7
168300	25.235799	9
168500	25.295666	9
168700	25.355603	8
168900	25.415612	3
169100	25.475691	9
169300	25.535842	7
169500	25.596063	7
169700	25.656355	4
169900	25.716718	6
170100	25.777152	9
170300	25.837657	5
170500	25.898233	10
170700	25.958880	535
170900	26.019597	5773
171100	26.080386	5
171300	26.141246	4
171500	26.202176	1
171700	26.263177	5
171900	26.324250	4
172100	26.385393	3
172300	26.446607	1
172500	26.507892	3
172700	26.569248	3
172900	26.630675	4
173100	26.692173	6
173300	26.753742	2
173500	26.815382	0
173700	26.877093	3
173900	26.938874	147
174100	27.000727	47653
174300	27.062650	890
174500	27.124645	16
174700	27.186710	13
174900	27.248846	11
175100	27.311053	5
175300	27.373331	4
175500	27.435680	8
175700	27.498100	2
175900	27.560591	4
176100	27.623153	4
176300	27.685786	9
176500	27.748489	4
176700	27.811264	0
176900	27.874110	4
177100	27.937026	49
177300	28.000013	16573
177500	28.063072	2123
177700	28.126201	4
177900	28.189401	5
178100	28.252672	5
178300	28.316014	4
178500	28.379427	2
178700	28.442911	3
178900	28.506465	7
179100	28.570091	3
179300	28.633788	2
179500	28.697555	4
179700	28.761394	3
179900	28.825303	5
180100	28.889284	9
180300	28.953335	1438
180500	29.017457	60369
180700	29.081650	1006
180900	29.145914	29
181100	29.210249	18
181300	29.274655	6
181500	29.339132	11
181700	29.403679	13
181900	29.468298	3
182100	29.532988	1
182300	29.597748	7
182500	29.662580	8
182700	29.727482	10
182900	29.792455	13
183100	29.857500	13
183300	29.922615	10
183500	29.987801	1470
183700	30.053058	7095
183900	30.118386	28
184100	30.183785	9
184300	30.249254	5
184500	30.314795	4
184700	30.380407	2
184900	30.446089	1
185100	30.511843	3
185300	30.577667	1
185500	30.643562	11
185700	30.709529	6
185900	30.775566	1
186100	30.841674	2
186300	30.907853	5
186500	30.974103	927
186700	31.040424	29142
186900	31.106816	18
187100	31.173279	15
187300	31.239812	15
187500	31.306417	20
187700	31.373092	5
187900	31.439839	4
188100	31.506656	9
188300	31.573544	21
188500	31.640504	7
188700	31.707534	4
188900	31.774635	5
189100	31.841807	2
189300	31.909050	0
189500	31.976364	84
189700	32.043749	715
189900	32.111204	5
190100	32.178731	2
190300	32.246328	3
190500	32.313997	2
190700	32.381736	1
190900	32.449547	1
191100	32.517428	5
191300	32.585380	1
191500	32.653403	3
191700	32.721497	0
191900	32.789662	3
192100	32.857898	0
192300	32.926205	3
192500	32.994583	124
192700	33.063032	370
192900	33.131551	2
193100	33.200142	2
193300	33.268803	0
193500	33.337536	3
193700	33.406339	7
193900	33.475213	5
194100	33.544158	1
194300	33.613174	1
194500	33.682261	2
194700	33.751419	2
194900	33.820648	1
195100	33.889948	2
195300	33.959319	3
195500	34.028760	19
195700	34.098273	1
195900	34.167856	2
196100	34.237511	1
196300	34.307236	1
196500	34.377032	1
196700	34.446900	0
196900	34.516838	2
197100	34.586847	1
197300	34.656927	0
197500	34.727078	3
197700	34.797300	1
197900	34.867592	1
198100	34.937956	18
198300	35.008391	79
198500	35.078896	1
198700	35.149473	1
198900	35.220120	0
199100	35.290838	2
199300	35.361628	1
199500	35.432488	0
199700	35.503419	0
199900	35.574421	1
200100	35.645494	4
200300	35.716638	2
200500	35.787853	0
200700	35.859138	2
200900	35.930495	6
201100	36.001923	325
201300	36.073421	1
201500	36.144991	2
201700	36.216631	0
201900	36.288342	1
202100	36.360125	2
202300	36.431978	3
202500	36.503902	0
202700	36.575897	3
202900	36.647963	2
203100	36.720100	3
203300	36.792307	0
203500	36.864586	2
203700	36.936936	160
203900	37.009356	1953
204100	37.081848	5
204300	37.154410	1
204500	37.227043	3
204700	37.299748	1
204900	37.372523	1
205100	37.445369	7
205300	37.518286	4
205500	37.591274	1
205700	37.664333	1
205900	37.737463	2
206100	37.810663	2
206300	37.883935	0
206500	37.957278	200
206700	38.030691	3633
206900	38.104176	2
207100	38.177731	5
207300	38.251357	1
207500	38.325055	5
207700	38.398823	5
207900	38.472662	3
