# Binning: 200 channels
# Deadtime Correction: on
Channel	m/z	Intensity
100	0.000226	0
300	0.000445	0
500	0.000737	0
700	0.001102	0
900	0.001541	0
1100	0.002053	0
1300	0.002639	0
1500	0.003298	0
1700	0.004030	0
1900	0.004836	0
2100	0.005715	0
2300	0.006667	0
2500	0.007693	0
2700	0.008792	0
2900	0.009965	0
3100	0.011211	0
3300	0.012530	0
3500	0.013923	0
3700	0.015389	0
3900	0.016928	0
4100	0.018541	0
4300	0.020227	0
4500	0.021986	0
4700	0.023819	0
4900	0.025726	0
5100	0.027705	0
5300	0.029758	0
5500	0.031885	0
5700	0.034084	0
5900	0.036357	0
6100	0.038704	0
6300	0.041124	0
6500	0.043617	0
6700	0.046183	0
6900	0.048823	0
7100	0.051537	0
7300	0.054323	0
7500	0.057183	0
7700	0.060117	0
7900	0.063124	0
8100	0.066204	0
8300	0.069357	0
8500	0.072584	0
8700	0.075885	0
8900	0.079258	0
9100	0.082705	0
9300	0.086226	0
9500	0.089819	0
9700	0.093486	0
9900	0.097227	0
10100	0.101041	0
10300	0.104928	0
10500	0.108889	0
10700	0.112923	0
10900	0.117030	0
11100	0.121211	0
11300	0.125465	0
11500	0.129792	0
11700	0.134193	0
11900	0.138667	0
12100	0.143215	0
12300	0.147836	0
12500	0.152530	0
12700	0.157298	0
12900	0.162139	0
13100	0.167053	0
13300	0.172041	0
13500	0.177102	0
13700	0.182237	0
13900	0.187444	0
14100	0.192726	0
14300	0.198080	0
14500	0.203508	0
14700	0.209010	0
14900	0.214584	0
15100	0.220233	0
15300	0.225954	0
15500	0.231749	0
15700	0.237617	0
15900	0.243559	0
16100	0.249574	0
16300	0.255662	0
16500	0.261824	0
16700	0.268059	0
16900	0.274367	0
17100	0.280749	0
17300	0.287204	0
17500	0.293733	0
17700	0.300335	0
17900	0.307010	0
18100	0.313759	0
18300	0.320581	0
18500	0.327476	0
18700	0.334445	0
18900	0.341487	0
19100	0.348603	0
19300	0.355791	0
19500	0.363054	0
19700	0.370389	0
19900	0.377798	0
20100	0.385281	0
20300	0.392836	0
20500	0.400465	0
20700	0.408168	0
20900	0.415944	0
21100	0.423793	0
21300	0.431716	0
21500	0.439711	0
21700	0.447781	0
21900	0.455923	0
22100	0.464140	0
22300	0.472429	0
22500	0.480792	0
22700	0.489228	0
22900	0.497737	0
23100	0.506320	0
23300	0.514977	0
23500	0.523706	0
23700	0.532509	0
23900	0.541386	0
24100	0.550335	0
24300	0.559359	0
24500	0.568455	0
24700	0.577625	0
24900	0.586868	0
25100	0.596185	0
25300	0.605575	0
25500	0.615038	0
25700	0.624575	0
25900	0.634185	0
26100	0.643868	0
26300	0.653625	0
26500	0.663455	0
26700	0.673359	0
26900	0.683336	0
27100	0.693386	0
27300	0.703510	1
27500	0.713707	0
27700	0.723977	0
27900	0.734321	0
28100	0.744738	0
28300	0.755229	0
28500	0.765793	0
28700	0.776430	0
28900	0.787141	0
29100	0.797925	0
29300	0.808782	0
29500	0.819713	0
29700	0.830717	0
29900	0.841794	0
30100	0.852945	0
30300	0.864169	0
30500	0.875467	0
30700	0.886838	0
30900	0.898282	0
31100	0.909800	0
31300	0.921391	0
31500	0.933056	0
31700	0.944793	0
31900	0.956605	0
32100	0.968489	0
32300	0.980447	0
32500	0.992478	0
32700	1.004583	16290
32900	1.016761	2
33100	1.029013	0
33300	1.041337	0
33500	1.053735	0
33700	1.066207	2
33900	1.078752	2
34100	1.091370	0
34300	1.104062	0
34500	1.116827	0
34700	1.129665	0
34900	1.142577	0
35100	1.155562	0
35300	1.168620	0
35500	1.181752	0
35700	1.194957	0
35900	1.208236	0
36100	1.221588	0
36300	1.235013	0
36500	1.248512	0
36700	1.262084	0
36900	1.275729	0
37100	1.289448	0
37300	1.303240	0
37500	1.317106	0
37700	1.331045	0
37900	1.345057	0
38100	1.359143	0
38300	1.373302	0
38500	1.387534	0
38700	1.401840	0
38900	1.416219	0
39100	1.430672	0
39300	1.445198	0
39500	1.459797	0
39700	1.474469	0
39900	1.489215	0
40100	1.504035	0
40300	1.518927	0
40500	1.533894	0
40700	1.548933	0
40900	1.564046	0
41100	1.579232	0
41300	1.594492	0
41500	1.609825	0
41700	1.625231	0
41900	1.640711	0
42100	1.656264	0
42300	1.671890	0
42500	1.687590	0
42700	1.703363	0
42900	1.719210	0
43100	1.735129	0
43300	1.751123	0
43500	1.767189	0
43700	1.783329	0
43900	1.799543	0
44100	1.815830	0
44300	1.832190	0
44500	1.848623	0
44700	1.865130	0
44900	1.881710	0
45100	1.898364	0
45300	1.915091	0
45500	1.931891	0
45700	1.948765	0
45900	1.965712	0
46100	1.982732	1
46300	1.999826	0
46500	2.016993	648
46700	2.034234	0
46900	2.051548	0
47100	2.068935	0
47300	2.086396	0
47500	2.103930	0
47700	2.121537	0
47900	2.139218	0
48100	2.156972	0
48300	2.174800	0
48500	2.192701	0
48700	2.210675	0
48900	2.228723	0
49100	2.246844	0
49300	2.265038	0
49500	2.283306	0
49700	2.301647	0
49900	2.320061	0
50100	2.338549	0
50300	2.357110	0
50500	2.375745	0
50700	2.394453	0
50900	2.413234	0
51100	2.432089	0
51300	2.451017	0
51500	2.470018	0
51700	2.489093	0
51900	2.508241	0
52100	2.527463	0
52300	2.546758	0
52500	2.566126	0
52700	2.585568	0
52900	2.605083	0
53100	2.624671	0
53300	2.644333	0
53500	2.664068	0
53700	2.683877	0
53900	2.703759	0
54100	2.723714	0
54300	2.743742	0
54500	2.763844	0
54700	2.784020	0
54900	2.804269	0
55100	2.824591	0
55300	2.844986	0
55500	2.865455	0
55700	2.885997	0
55900	2.906613	0
56100	2.927302	0
56300	2.948064	0
56500	2.968900	0
56700	2.989809	0
56900	3.010791	0
57100	3.031847	90
57300	3.052976	0
57500	3.074179	0
57700	3.095455	0
57900	3.116804	0
58100	3.138226	0
58300	3.159722	0
58500	3.181292	0
58700	3.202935	0
58900	3.224651	0
59100	3.246440	0
59300	3.268303	0
59500	3.290239	0
59700	3.312249	0
59900	3.334332	0
60100	3.356488	0
60300	3.378718	0
60500	3.401021	0
60700	3.423398	0
60900	3.445847	0
61100	3.468371	0
61300	3.490967	0
61500	3.513637	0
61700	3.536380	0
61900	3.559197	0
62100	3.582087	0
62300	3.605051	0
62500	3.628087	0
62700	3.651197	0
62900	3.674381	0
63100	3.697638	0
63300	3.720968	0
63500	3.744372	0
63700	3.767849	0
63900	3.791399	0
64100	3.815023	0
64300	3.838720	0
64500	3.862491	0
64700	3.886334	0
64900	3.910252	0
65100	3.934242	0
65300	3.958306	0
65500	3.982444	0
65700	4.006654	0
65900	4.030938	0
66100	4.055296	0
66300	4.079727	0
66500	4.104231	0
66700	4.128808	0
66900	4.153459	0
67100	4.178184	0
67300	4.202981	0
67500	4.227852	0
67700	4.252797	0
67900	4.277814	0
68100	4.302906	0
68300	4.328070	0
68500	4.353308	0
68700	4.378619	0
68900	4.404004	0
69100	4.429462	0
69300	4.454993	0
69500	4.480598	0
69700	4.506276	0
69900	4.532027	0
70100	4.557852	0
70300	4.583751	0
70500	4.609722	0
70700	4.635767	0
70900	4.661885	0
71100	4.688077	0
71300	4.714342	0
71500	4.740681	0
71700	4.767092	0
71900	4.793578	0
72100	4.820136	0
72300	4.846768	0
72500	4.873473	0
72700	4.900252	0
72900	4.927104	0
73100	4.954029	0
73300	4.981028	0
73500	5.008100	0
73700	5.035246	0
73900	5.062465	0
74100	5.089757	0
74300	5.117123	0
74500	5.144562	0
74700	5.172074	0
74900	5.199660	0
75100	5.227319	0
75300	5.255051	0
75500	5.282857	0
75700	5.310736	0
75900	5.338689	0
76100	5.366715	0
76300	5.394814	0
76500	5.422987	0
76700	5.451233	0
76900	5.479552	0
77100	5.507945	0
77300	5.536411	0
77500	5.564951	0
77700	5.593564	0
77900	5.622250	0
78100	5.651009	0
78300	5.679842	0
78500	5.708749	0
78700	5.737729	0
78900	5.766782	0
79100	5.795908	0
79300	5.825108	0
79500	5.854381	0
79700	5.883728	0
79900	5.913148	0
80100	5.942641	0
80300	5.972208	0
80500	6.001848	28
80700	6.031561	2
80900	6.061348	0
81100	6.091208	0
81300	6.121142	0
81500	6.151149	0
81700	6.181229	0
81900	6.211383	0
82100	6.241610	0
82300	6.271910	0
82500	6.302284	0
82700	6.332731	0
82900	6.363252	0
83100	6.393846	0
83300	6.424513	0
83500	6.455254	0
83700	6.486068	0
83900	6.516955	0
84100	6.547916	0
84300	6.578950	0
84500	6.610057	0
84700	6.641238	0
84900	6.672492	0
85100	6.703820	0
85300	6.735221	0
85500	6.766695	0
85700	6.798243	0
85900	6.829864	0
86100	6.861558	0
86300	6.893326	0
86500	6.925167	0
86700	6.957082	0
86900	6.989070	0
87100	7.021131	227
87300	7.053266	1
87500	7.085474	0
87700	7.117755	0
87900	7.150110	0
88100	7.182538	0
88300	7.215040	0
88500	7.247615	0
88700	7.280263	0
88900	7.312984	0
89100	7.345779	0
89300	7.378648	0
89500	7.411590	0
89700	7.444605	0
89900	7.477693	0
90100	7.510855	0
90300	7.544090	0
90500	7.577399	0
90700	7.610781	0
90900	7.644236	0
91100	7.677765	0
91300	7.711367	0
91500	7.745042	0
91700	7.778791	0
91900	7.812613	0
92100	7.846509	0
92300	7.880478	0
92500	7.914520	0
92700	7.948636	0
92900	7.982825	0
93100	8.017087	0
93300	8.051423	0
93500	8.085832	0
93700	8.120314	0
93900	8.154870	0
94100	8.189499	0
94300	8.224202	0
94500	8.258978	0
94700	8.293827	0
94900	8.328750	0
95100	8.363746	0
95300	8.398816	0
95500	8.433958	0
95700	8.469175	0
95900	8.504464	0
96100	8.539827	0
96300	8.575263	0
96500	8.610773	0
96700	8.646356	0
96900	8.682013	0
97100	8.717742	0
97300	8.753546	0
97500	8.789422	0
97700	8.825372	0
97900	8.861395	0
98100	8.897492	0
98300	8.933662	0
98500	8.969905	0
98700	9.006222	0
98900	9.042612	0
99100	9.079076	0
99300	9.115612	0
99500	9.152223	0
99700	9.188906	0
99900	9.225663	0
100100	9.262494	0
100300	9.299397	0
100500	9.336374	0
100700	9.373425	0
100900	9.410549	0
101100	9.447746	0
101300	9.485016	0
101500	9.522360	0
101700	9.559778	0
101900	9.597268	0
102100	9.634832	0
102300	9.672470	0
102500	9.710180	1
102700	9.747965	0
102900	9.785822	0
103100	9.823753	0
103300	9.861757	0
103500	9.899835	0
103700	9.937986	0
103900	9.976210	0
104100	10.014508	6
104300	10.052879	0
104500	10.091324	0
104700	10.129841	0
104900	10.168433	0
105100	10.207097	0
105300	10.245835	0
105500	10.284646	0
105700	10.323531	0
105900	10.362489	0
106100	10.401521	0
106300	10.440625	0
106500	10.479804	0
106700	10.519055	0
106900	10.558380	0
107100	10.597778	0
107300	10.637250	0
107500	10.676795	0
107700	10.716413	0
107900	10.756105	0
108100	10.795870	0
108300	10.835709	0
108500	10.875621	0
108700	10.915606	0
108900	10.955665	0
109100	10.995797	19
109300	11.036002	0
109500	11.076281	0
109700	11.116633	0
109900	11.157058	0
110100	11.197557	0
110300	11.238129	0
110500	11.278775	0
110700	11.319494	0
110900	11.360286	0
111100	11.401152	0
111300	11.442091	0
111500	11.483103	0
111700	11.524189	0
111900	11.565348	0
112100	11.606581	0
112300	11.647887	0
112500	11.689266	0
112700	11.730718	0
112900	11.772244	0
113100	11.813844	0
113300	11.855517	1
113500	11.897263	0
113700	11.939082	1
113900	11.980975	2346
114100	12.022941	374
114300	12.064981	0
114500	12.107094	0
114700	12.149280	0
114900	12.191540	0
115100	12.233873	0
115300	12.276279	1
115500	12.318759	0
115700	12.361312	0
115900	12.403939	0
116100	12.446639	0
116300	12.489412	0
116500	12.532259	0
116700	12.575179	0
116900	12.618172	0
117100	12.661239	0
117300	12.704379	0
117500	12.747593	0
117700	12.790880	0
117900	12.834240	0
118100	12.877674	0
118300	12.921181	0
118500	12.964761	4
118700	13.008415	3332
118900	13.052142	0
119100	13.095942	0
119300	13.139816	0
119500	13.183763	0
119700	13.227784	0
119900	13.271878	0
120100	13.316045	2
120300	13.360286	0
120500	13.404600	0
120700	13.448987	0
120900	13.493448	0
121100	13.537982	0
121300	13.582590	0
121500	13.627271	0
121700	13.672025	0
121900	13.716853	0
122100	13.761754	0
122300	13.806728	0
122500	13.851776	0
122700	13.896897	0
122900	13.942092	0
123100	13.987360	75
123300	14.032701	7652
123500	14.078115	0
123700	14.123603	0
123900	14.169165	1
124100	14.214800	0
124300	14.260508	0
124500	14.306289	0
124700	14.352144	0
124900	14.398072	1
125100	14.444074	0
125300	14.490149	1
125500	14.536297	1
125700	14.582519	0
125900	14.628814	0
126100	14.675182	0
126300	14.721624	0
126500	14.768139	0
126700	14.814728	0
126900	14.861390	0
127100	14.908125	1
127300	14.954933	1
127500	15.001816	11432
127700	15.048771	2482
127900	15.095800	0
128100	15.142902	0
128300	15.190077	1
128500	15.237326	2
128700	15.284648	1
128900	15.332044	0
129100	15.379513	0
129300	15.427055	0
129500	15.474671	0
129700	15.522360	1
129900	15.570123	0
130100	15.617958	0
130300	15.665868	0
130500	15.713850	1
130700	15.761906	1
130900	15.810035	0
131100	15.858238	0
131300	15.906514	1
131500	15.954864	0
131700	16.003286	218
131900	16.051782	104
132100	16.100352	0
132300	16.148995	0
132500	16.197711	0
132700	16.246501	0
132900	16.295364	0
133100	16.344300	0
133300	16.393310	0
133500	16.442393	0
133700	16.491550	0
133900	16.540779	0
134100	16.590083	0
134300	16.639459	0
134500	16.688909	0
134700	16.738432	0
134900	16.788029	0
135100	16.837699	0
135300	16.887443	0
135500	16.937260	0
135700	16.987150	59
135900	17.037113	70
136100	17.087150	0
136300	17.137260	0
136500	17.187444	0
136700	17.237701	0
136900	17.288032	0
137100	17.338435	0
137300	17.388913	0
137500	17.439463	1
137700	17.490087	0
137900	17.540784	0
138100	17.591555	0
138300	17.642399	0
138500	17.693316	1
138700	17.744307	0
138900	17.795371	0
139100	17.846508	0
139300	17.897719	0
139500	17.949004	0
139700	18.000361	82
139900	18.051792	929
140100	18.103296	4
140300	18.154874	0
140500	18.206525	1
140700	18.258250	1
140900	18.310047	1
141100	18.361919	0
141300	18.413863	0
141500	18.465881	1
141700	18.517972	0
141900	18.570137	1
142100	18.622375	0
142300	18.674686	0
142500	18.727071	0
142700	18.779529	0
142900	18.832061	0
143100	18.884666	0
143300	18.937344	0
143500	18.990095	100
143700	19.042920	177
143900	19.095819	0
144100	19.148791	0
144300	19.201836	0
144500	19.254954	0
144700	19.308146	0
144900	19.361411	0
145100	19.414750	0
145300	19.468162	0
145500	19.521647	0
145700	19.575206	0
145900	19.628838	1
146100	19.682543	0
146300	19.736322	0
146500	19.790174	0
146700	19.844100	0
146900	19.898098	0
147100	19.952171	4
147300	20.006316	5
147500	20.060535	0
147700	20.114828	1
147900	20.169194	0
148100	20.223633	1
148300	20.278145	0
148500	20.332731	1
148700	20.387390	0
148900	20.442123	0
149100	20.496929	1
149300	20.551808	1
149500	20.606761	0
149700	20.661787	2
149900	20.716886	0
150100	20.772059	1
150300	20.827305	1
150500	20.882625	0
150700	20.938018	0
150900	20.993484	2
151100	21.049024	0
151300	21.104637	0
151500	21.160323	2
151700	21.216083	1
151900	21.271916	1
152100	21.327823	0
152300	21.383803	1
152500	21.439856	0
152700	21.495983	1
152900	21.552183	1
153100	21.608456	0
153300	21.664803	2
153500	21.721223	1
153700	21.777716	3
153900	21.834283	0
154100	21.890923	2
154300	21.947637	1
154500	22.004424	1
154700	22.061284	0
154900	22.118218	0
155100	22.175225	0
155300	22.232305	1
155500	22.289459	0
155700	22.346686	0
155900	22.403987	0
156100	22.461361	0
156300	22.518808	0
156500	22.576329	0
156700	22.633923	0
156900	22.691590	0
157100	22.749331	0
157300	22.807145	1
157500	22.865033	1
157700	22.922993	17
157900	22.981028	495712
158100	23.039135	4448
158300	23.097316	414
158500	23.155571	173
158700	23.213898	77
158900	23.272300	53
159100	23.330774	43
159300	23.389322	12
159500	23.447943	22
159700	23.506638	11
159900	23.565406	3
160100	23.624247	5
160300	23.683162	5
160500	23.742150	3
160700	23.801211	6
160900	23.860346	4
161100	23.919554	1
161300	23.978836	665
161500	24.038190	5
161700	24.097619	0
161900	24.157120	2
162100	24.216695	2
162300	24.276344	1
162500	24.336066	0
162700	24.395861	0
162900	24.455729	4
163100	24.515671	2
163300	24.575686	2
163500	24.635775	0
163700	24.695937	1
163900	24.756172	1
164100	24.816481	0
164300	24.876863	1
164500	24.937318	4
164700	24.997847	889
164900	25.058449	1
165100	25.119125	1
165300	25.179874	0
165500	25.240696	0
165700	25.301592	1
165900	25.362561	0
166100	25.423603	1
166300	25.484719	0
166500	25.545908	0
166700	25.607171	0
166900	25.668507	0
167100	25.729916	2
167300	25.791399	0
167500	25.852955	0
167700	25.914584	11
167900	25.976287	824
168100	26.038063	8898
168300	26.099912	2
168500	26.161835	3
168700	26.223831	1
168900	26.285901	1
169100	26.348044	1
169300	26.410260	3
169500	26.472550	2
169700	26.534913	1
169900	26.597350	0
170100	26.659859	3
170300	26.722443	1
170500	26.785099	2
170700	26.847829	0
170900	26.910632	3
171100	26.973509	2577
171300	27.036459	46149
171500	27.099482	16
171700	27.162579	5
171900	27.225749	4
172100	27.288993	2
172300	27.352310	4
172500	27.415700	2
172700	27.479164	4
172900	27.542701	0
173100	27.606311	1
173300	27.669995	1
173500	27.733752	4
173700	27.797582	3
173900	27.861486	3
174100	27.925463	11
174300	27.989514	3420
174500	28.053638	6160
174700	28.117835	3
174900	28.182106	3
175100	28.246450	2
175300	28.310867	0
175500	28.375358	2
175700	28.439922	4
175900	28.504560	2
176100	28.569271	1
176300	28.634055	2
176500	28.698913	0
176700	28.763844	2
176900	28.828848	0
177100	28.893926	2
177300	28.959077	430
177500	29.024302	34381
177700	29.089599	327
177900	29.154971	8
178100	29.220415	11
178300	29.285933	6
178500	29.351525	9
178700	29.417189	4
178900	29.482927	3
179100	29.548739	1
179300	29.614624	3
179500	29.680582	0
179700	29.746614	1
179900	29.812718	2
180100	29.878897	2
180300	29.945148	61
180500	30.011473	2620
180700	30.077872	357
180900	30.144344	3
181100	30.210889	0
181300	30.277507	4
181500	30.344199	1
181700	30.410965	1
181900	30.477803	0
182100	30.544715	0
182300	30.611701	3
182500	30.678759	0
182700	30.745891	0
182900	30.813097	0
183100	30.880376	0
183300	30.947728	17
183500	31.015154	3114
183700	31.082653	11
183900	31.150225	3
184100	31.217871	13
184300	31.285590	13
184500	31.353382	5
184700	31.421248	0
184900	31.489187	3
185100	31.557200	7
185300	31.625286	5
185500	31.693445	0
185700	31.761678	1
185900	31.829984	1
186100	31.898363	0
186300	31.966816	15
186500	32.035342	125
186700	32.103942	2
186900	32.172614	1
187100	32.241361	2
187300	32.310180	2
187500	32.379073	1
187700	32.448040	0
187900	32.517079	0
188100	32.586193	0
188300	32.655379	0
188500	32.724639	0
188700	32.793972	0
188900	32.863379	0
189100	32.932859	1
189300	33.002412	22
189500	33.072039	9
189700	33.141739	0
189900	33.211512	0
190100	33.281359	0
190300	33.351279	0
190500	33.421273	2
190700	33.491340	0
190900	33.561480	0
191100	33.631694	0
191300	33.701981	1
191500	33.772341	1
191700	33.842775	0
191900	33.913282	0
192100	33.983862	1
192300	34.054516	2
192500	34.125244	0
192700	34.196044	0
192900	34.266918	1
193100	34.337865	0
193300	34.408886	0
193500	34.479980	0
193700	34.551148	2
193900	34.622389	0
194100	34.693703	0
194300	34.765090	1
194500	34.836551	0
194700	34.908086	0
194900	34.979693	69
195100	35.051374	0
195300	35.123129	1
195500	35.194957	0
195700	35.266858	1
195900	35.338832	0
196100	35.410880	0
196300	35.483002	0
196500	35.555196	1
196700	35.627464	0
196900	35.699806	1
197100	35.772220	1
197300	35.844708	0
197500	35.917270	0
197700	35.989905	160
197900	36.062613	0
198100	36.135395	1
198300	36.208250	2
198500	36.281178	1
198700	36.354180	0
198900	36.427255	0
199100	36.500403	0
199300	36.573625	0
199500	36.646920	2
199700	36.720289	0
199900	36.793731	0
200100	36.867246	7
200300	36.940835	244
200500	37.014497	1587
200700	37.088232	2
200900	37.162041	1
201100	37.235923	2
201300	37.309879	2
201500	37.383908	2
201700	37.458010	4
201900	37.532185	2
202100	37.606434	1
202300	37.680757	3
202500	37.755153	1
202700	37.829622	0
202900	37.904164	7
203100	37.978780	2718
203300	38.053469	1577
203500	38.128232	1
203700	38.203068	4
203900	38.277977	7
204100	38.352960	2
204300	38.428016	3
204500	38.503145	0
204700	38.578348	2
204900	38.653624	1
205100	38.728974	4
205300	38.804397	4
205500	38.879893	108
205700	38.955463	24619
205900	39.031106	32110
206100	39.106822	78
206300	39.182612	41
206500	39.258475	43
206700	39.334412	24
206900	39.410422	32
207100	39.486505	56
207300	39.562661	52
207500	39.638891	67
207700	39.715195	24
207900	39.791571	32
208100	39.868022	32
208300	39.944545	9789
