# Binning: 200 channels
# Deadtime Correction: on
Channel	m/z	Intensity
100	0.000198	0
300	0.000405	0
500	0.000687	0
700	0.001041	0
900	0.001470	0
1100	0.001972	0
1300	0.002547	0
1500	0.003196	0
1700	0.003919	0
1900	0.004716	0
2100	0.005586	0
2300	0.006530	0
2500	0.007547	0
2700	0.008638	0
2900	0.009802	0
3100	0.011040	0
3300	0.012352	0
3500	0.013738	0
3700	0.015197	0
3900	0.016729	0
4100	0.018335	0
4300	0.020015	0
4500	0.021769	0
4700	0.023596	0
4900	0.025496	0
5100	0.027471	0
5300	0.029519	0
5500	0.031640	0
5700	0.033835	0
5900	0.036104	0
6100	0.038447	0
6300	0.040863	0
6500	0.043352	0
6700	0.045915	0
6900	0.048552	0
7100	0.051263	0
7300	0.054047	0
7500	0.056905	0
7700	0.059836	0
7900	0.062841	0
8100	0.065919	0
8300	0.069072	0
8500	0.072297	0
8700	0.075597	0
8900	0.078970	0
9100	0.082416	0
9300	0.085937	0
9500	0.089531	0
9700	0.093198	0
9900	0.096939	0
10100	0.100754	0
10300	0.104642	0
10500	0.108604	0
10700	0.112640	0
10900	0.116749	0
11100	0.120932	0
11300	0.125188	0
11500	0.129518	0
11700	0.133922	0
11900	0.138399	0
12100	0.142950	0
12300	0.147574	0
12500	0.152272	0
12700	0.157044	0
12900	0.161890	0
13100	0.166809	0
13300	0.171801	0
13500	0.176867	0
13700	0.182007	0
13900	0.187221	0
14100	0.192508	0
14300	0.197868	0
14500	0.203303	0
14700	0.208810	0
14900	0.214392	0
15100	0.220047	0
15300	0.225776	0
15500	0.231578	0
15700	0.237454	0
15900	0.243404	0
16100	0.249427	0
16300	0.255524	0
16500	0.261694	0
16700	0.267938	0
16900	0.274256	0
17100	0.280647	0
17300	0.287112	0
17500	0.293651	0
17700	0.300263	0
17900	0.306948	0
18100	0.313708	0
18300	0.320541	0
18500	0.327447	0
18700	0.334428	0
18900	0.341481	0
19100	0.348609	0
19300	0.355810	0
19500	0.363085	0
19700	0.370433	0
19900	0.377855	0
20100	0.385350	0
20300	0.392920	0
20500	0.400562	0
20700	0.408279	0
20900	0.416069	0
21100	0.423932	0
21300	0.431870	0
21500	0.439880	0
21700	0.447965	0
21900	0.456123	0
22100	0.464355	0
22300	0.472660	0
22500	0.481039	0
22700	0.489491	0
22900	0.498018	0
23100	0.506617	0
23300	0.515291	0
23500	0.524038	0
23700	0.532858	0
23900	0.541753	0
24100	0.550721	0
24300	0.559762	0
24500	0.568877	0
24700	0.578066	0
24900	0.587328	0
25100	0.596664	0
25300	0.606074	0
25500	0.615557	0
25700	0.625114	0
25900	0.634744	0
26100	0.644448	0
26300	0.654226	0
26500	0.664077	0
26700	0.674002	0
26900	0.684000	0
27100	0.694072	0
27300	0.704218	0
27500	0.714437	0
27700	0.724730	0
27900	0.735097	0
28100	0.745537	0
28300	0.756051	0
28500	0.766638	0
28700	0.777299	0
28900	0.788034	0
29100	0.798842	0
29300	0.809724	0
29500	0.820680	0
29700	0.831709	0
29900	0.842811	0
30100	0.853988	0
30300	0.865238	0
30500	0.876561	0
30700	0.887959	0
30900	0.899429	0
31100	0.910974	0
31300	0.922592	0
31500	0.934284	0
31700	0.946049	0
31900	0.957888	0
32100	0.969800	0
32300	0.981786	0
32500	0.993846	0
32700	1.005979	12202
32900	1.018186	6
33100	1.030467	0
33300	1.042821	0
33500	1.055249	0
33700	1.067750	0
33900	1.080326	0
34100	1.092974	0
34300	1.105697	1
34500	1.118492	0
34700	1.131362	0
34900	1.144305	0
35100	1.157322	0
35300	1.170412	0
35500	1.183576	0
35700	1.196814	0
35900	1.210125	0
36100	1.223510	0
36300	1.236968	0
36500	1.250500	0
36700	1.264106	0
36900	1.277785	0
37100	1.291538	0
37300	1.305365	0
37500	1.319265	0
37700	1.333239	0
37900	1.347286	0
38100	1.361407	0
38300	1.375602	0
38500	1.389870	0
38700	1.404212	0
38900	1.418627	0
39100	1.433116	0
39300	1.447679	0
39500	1.462315	0
39700	1.477025	0
39900	1.491809	0
40100	1.506666	0
40300	1.521597	0
40500	1.536601	0
40700	1.551679	0
40900	1.566831	0
41100	1.582056	0
41300	1.597355	0
41500	1.612727	0
41700	1.628173	0
41900	1.643693	0
42100	1.659287	0
42300	1.674953	0
42500	1.690694	0
42700	1.706508	0
42900	1.722396	0
43100	1.738357	0
43300	1.754392	0
43500	1.770501	0
43700	1.786683	0
43900	1.802939	0
44100	1.819269	0
44300	1.835672	0
44500	1.852149	0
44700	1.868699	0
44900	1.885323	0
45100	1.902020	0
45300	1.918792	0
45500	1.935636	0
45700	1.952555	0
45900	1.969547	0
46100	1.986612	0
46300	2.003752	0
46500	2.020965	409
46700	2.038251	1
46900	2.055611	0
47100	2.073045	0
47300	2.090552	0
47500	2.108133	0
47700	2.125788	0
47900	2.143516	0
48100	2.161318	0
48300	2.179193	0
48500	2.197142	0
48700	2.215165	0
48900	2.233261	0
49100	2.251431	0
49300	2.269675	0
49500	2.287992	0
49700	2.306383	0
49900	2.324847	0
50100	2.343385	0
50300	2.361997	0
50500	2.380682	0
50700	2.399441	0
50900	2.418273	0
51100	2.437179	0
51300	2.456159	0
51500	2.475212	0
51700	2.494339	0
51900	2.513539	0
52100	2.532814	0
52300	2.552161	0
52500	2.571583	0
52700	2.591078	0
52900	2.610646	0
53100	2.630289	0
53300	2.650004	0
53500	2.669794	0
53700	2.689657	0
53900	2.709594	0
54100	2.729604	0
54300	2.749688	0
54500	2.769845	0
54700	2.790077	0
54900	2.810381	0
55100	2.830760	0
55300	2.851212	0
55500	2.871737	0
55700	2.892337	0
55900	2.913009	0
56100	2.933756	0
56300	2.954576	0
56500	2.975470	0
56700	2.996437	0
56900	3.017478	50
57100	3.038592	0
57300	3.059781	0
57500	3.081042	0
57700	3.102378	0
57900	3.123787	0
58100	3.145269	0
58300	3.166826	0
58500	3.188456	0
58700	3.210159	0
58900	3.231936	0
59100	3.253787	0
59300	3.275711	0
59500	3.297709	0
59700	3.319781	0
59900	3.341926	0
60100	3.364145	0
60300	3.386437	0
60500	3.408803	0
60700	3.431243	0
60900	3.453756	0
61100	3.476343	0
61300	3.499003	0
61500	3.521737	0
61700	3.544545	0
61900	3.567426	0
62100	3.590381	0
62300	3.613410	0
62500	3.636512	0
62700	3.659688	0
62900	3.682937	0
63100	3.706260	0
63300	3.729657	0
63500	3.753127	0
63700	3.776671	0
63900	3.800289	0
64100	3.823980	0
64300	3.847745	0
64500	3.871583	0
64700	3.895495	0
64900	3.919481	0
65100	3.943540	0
65300	3.967673	0
65500	3.991879	0
65700	4.016159	0
65900	4.040513	0
66100	4.064940	0
66300	4.089441	0
66500	4.114015	0
66700	4.138664	0
66900	4.163385	0
67100	4.188181	0
67300	4.213050	0
67500	4.237992	0
67700	4.263008	0
67900	4.288098	0
68100	4.313262	0
68300	4.338499	0
68500	4.363809	0
68700	4.389194	0
68900	4.414652	0
69100	4.440183	0
69300	4.465788	0
69500	4.491467	1
69700	4.517219	0
69900	4.543045	0
70100	4.568945	0
70300	4.594918	0
70500	4.620965	0
70700	4.647086	0
70900	4.673280	0
71100	4.699547	0
71300	4.725889	0
71500	4.752304	0
71700	4.778792	0
71900	4.805354	0
72100	4.831990	0
72300	4.858699	0
72500	4.885482	0
72700	4.912339	0
72900	4.939269	0
73100	4.966273	0
73300	4.993351	0
73500	5.020502	0
73700	5.047726	0
73900	5.075025	0
74100	5.102397	0
74300	5.129842	0
74500	5.157361	0
74700	5.184954	0
74900	5.212621	0
75100	5.240361	0
75300	5.268174	0
75500	5.296061	0
75700	5.324022	0
75900	5.352057	0
76100	5.380165	0
76300	5.408347	0
76500	5.436602	0
76700	5.464931	0
76900	5.493333	0
77100	5.521810	0
77300	5.550359	0
77500	5.578983	0
77700	5.607680	0
77900	5.636450	0
78100	5.665295	0
78300	5.694213	0
78500	5.723204	0
78700	5.752269	0
78900	5.781408	0
79100	5.810620	0
79300	5.839906	0
79500	5.869266	0
79700	5.898699	0
79900	5.928206	0
80100	5.957786	0
80300	5.987440	0
80500	6.017168	24
80700	6.046969	0
80900	6.076844	0
81100	6.106793	0
81300	6.136815	0
81500	6.166910	0
81700	6.197080	0
81900	6.227323	0
82100	6.257639	0
82300	6.288030	0
82500	6.318493	0
82700	6.349031	0
82900	6.379642	1
83100	6.410327	0
83300	6.441085	0
83500	6.471917	0
83700	6.502822	0
83900	6.533801	0
84100	6.564854	0
84300	6.595981	0
84500	6.627181	0
84700	6.658454	0
84900	6.689801	0
85100	6.721222	0
85300	6.752717	0
85500	6.784285	0
85700	6.815926	0
85900	6.847642	0
86100	6.879431	0
86300	6.911293	0
86500	6.943229	0
86700	6.975239	0
86900	7.007322	331
87100	7.039479	12
87300	7.071710	0
87500	7.104014	0
87700	7.136392	0
87900	7.168844	0
88100	7.201369	0
88300	7.233967	0
88500	7.266640	0
88700	7.299386	0
88900	7.332205	0
89100	7.365098	0
89300	7.398065	0
89500	7.431105	0
89700	7.464219	0
89900	7.497407	0
90100	7.530668	0
90300	7.564003	0
90500	7.597412	0
90700	7.630894	0
90900	7.664449	0
91100	7.698079	0
91300	7.731782	0
91500	7.765558	0
91700	7.799408	0
91900	7.833332	0
92100	7.867330	0
92300	7.901401	0
92500	7.935545	0
92700	7.969763	0
92900	8.004055	0
93100	8.038421	0
93300	8.072860	0
93500	8.107373	0
93700	8.141959	0
93900	8.176619	0
94100	8.211352	0
94300	8.246160	0
94500	8.281040	0
94700	8.315995	0
94900	8.351023	1
95100	8.386125	0
95300	8.421300	0
95500	8.456549	0
95700	8.491871	0
95900	8.527267	0
96100	8.562737	0
96300	8.598280	0
96500	8.633897	0
96700	8.669588	0
96900	8.705352	0
97100	8.741190	0
97300	8.777101	0
97500	8.813086	0
97700	8.849145	0
97900	8.885277	0
98100	8.921483	0
98300	8.957763	0
98500	8.994116	0
98700	9.030543	0
98900	9.067043	0
99100	9.103617	0
99300	9.140264	0
99500	9.176986	0
99700	9.213780	0
99900	9.250649	0
100100	9.287591	0
100300	9.324607	0
100500	9.361696	0
100700	9.398859	0
100900	9.436095	0
101100	9.473405	0
101300	9.510789	0
101500	9.548247	0
101700	9.585778	0
101900	9.623382	0
102100	9.661060	0
102300	9.698812	0
102500	9.736638	0
102700	9.774537	0
102900	9.812509	0
103100	9.850556	0
103300	9.888676	0
103500	9.926869	0
103700	9.965136	0
103900	10.003477	3
104100	10.041891	0
104300	10.080379	0
104500	10.118941	0
104700	10.157576	0
104900	10.196285	0
105100	10.235068	0
105300	10.273924	0
105500	10.312853	0
105700	10.351857	0
105900	10.390934	0
106100	10.430084	0
106300	10.469308	0
106500	10.508606	0
106700	10.547977	0
106900	10.587423	0
107100	10.626941	0
107300	10.666533	0
107500	10.706199	0
107700	10.745939	0
107900	10.785752	0
108100	10.825638	0
108300	10.865599	0
108500	10.905633	0
108700	10.945740	0
108900	10.985921	0
109100	11.026176	25
109300	11.066505	0
109500	11.106907	0
109700	11.147382	0
109900	11.187932	0
110100	11.228554	0
110300	11.269251	0
110500	11.310021	0
110700	11.350865	0
110900	11.391782	0
111100	11.432773	0
111300	11.473838	0
111500	11.514976	0
111700	11.556188	0
111900	11.597473	0
112100	11.638832	0
112300	11.680265	0
112500	11.721771	0
112700	11.763351	0
112900	11.805004	0
113100	11.846731	0
113300	11.888532	0
113500	11.930407	0
113700	11.972354	4
113900	12.014376	2581
114100	12.056471	0
114300	12.098640	0
114500	12.140883	0
114700	12.183199	0
114900	12.225588	0
115100	12.268051	0
115300	12.310588	0
115500	12.353199	0
115700	12.395883	0
115900	12.438641	0
116100	12.481472	0
116300	12.524377	0
116500	12.567356	0
116700	12.610408	0
116900	12.653534	0
117100	12.696733	0
117300	12.740006	0
117500	12.783353	0
117700	12.826773	0
117900	12.870267	1
118100	12.913835	0
118300	12.957476	0
118500	13.001190	2500
118700	13.044979	0
118900	13.088841	0
119100	13.132776	0
119300	13.176786	1
119500	13.220869	0
119700	13.265025	0
119900	13.309255	0
120100	13.353559	0
120300	13.397936	0
120500	13.442387	0
120700	13.486911	0
120900	13.531510	0
121100	13.576181	0
121300	13.620927	0
121500	13.665746	0
121700	13.710638	0
121900	13.755605	0
122100	13.800644	0
122300	13.845758	0
122500	13.890945	0
122700	13.936206	0
122900	13.981540	6
123100	14.026948	4793
123300	14.072429	0
123500	14.117985	0
123700	14.163613	0
123900	14.209316	0
124100	14.255092	0
124300	14.300941	1
124500	14.346865	1
124700	14.392862	1
124900	14.438932	0
125100	14.485076	0
125300	14.531294	0
125500	14.577585	0
125700	14.623950	0
125900	14.670389	0
126100	14.716901	0
126300	14.763487	1
126500	14.810146	0
126700	14.856879	0
126900	14.903686	0
127100	14.950566	0
127300	14.997520	939
127500	15.044547	9138
127700	15.091648	0
127900	15.138823	1
128100	15.186071	0
128300	15.233393	0
128500	15.280789	0
128700	15.328258	2
128900	15.375801	1
129100	15.423417	0
129300	15.471107	0
129500	15.518871	0
129700	15.566708	0
129900	15.614619	0
130100	15.662604	0
130300	15.710662	0
130500	15.758794	0
130700	15.806999	1
130900	15.855278	0
131100	15.903630	0
131300	15.952057	1
131500	16.000556	126
131700	16.049130	132
131900	16.097777	0
132100	16.146498	0
132300	16.195292	0
132500	16.244160	0
132700	16.293101	0
132900	16.342116	0
133100	16.391205	0
133300	16.440368	0
133500	16.489604	0
133700	16.538913	0
133900	16.588296	0
134100	16.637753	0
134300	16.687284	1
134500	16.736888	0
134700	16.786565	0
134900	16.836317	0
135100	16.886142	0
135300	16.936040	0
135500	16.986012	45
135700	17.036058	44
135900	17.086177	0
136100	17.136370	0
136300	17.186637	0
136500	17.236977	0
136700	17.287391	0
136900	17.337878	0
137100	17.388439	0
137300	17.439074	0
137500	17.489782	0
137700	17.540564	0
137900	17.591420	0
138100	17.642349	0
138300	17.693352	0
138500	17.744428	0
138700	17.795578	0
138900	17.846802	0
139100	17.898099	0
139300	17.949470	0
139500	18.000914	45
139700	18.052432	1035
139900	18.104024	10
140100	18.155690	6
140300	18.207428	0
140500	18.259241	0
140700	18.311127	0
140900	18.363087	1
141100	18.415120	0
141300	18.467227	0
141500	18.519408	0
141700	18.571662	0
141900	18.623990	0
142100	18.676392	0
142300	18.728867	0
142500	18.781415	0
142700	18.834038	0
142900	18.886734	0
143100	18.939503	0
143300	18.992346	147
143500	19.045263	72
143700	19.098254	0
143900	19.151318	1
144100	19.204455	0
144300	19.257666	0
144500	19.310951	0
144700	19.364310	0
144900	19.417742	0
145100	19.471248	0
145300	19.524827	1
145500	19.578480	0
145700	19.632207	0
145900	19.686007	0
146100	19.739881	0
146300	19.793828	0
146500	19.847849	0
146700	19.901944	0
146900	19.956112	15
147100	20.010354	0
147300	20.064669	0
147500	20.119058	0
147700	20.173521	0
147900	20.228058	0
148100	20.282667	0
148300	20.337351	0
148500	20.392108	0
148700	20.446939	0
148900	20.501844	0
149100	20.556822	0
149300	20.611873	0
149500	20.666999	0
149700	20.722197	0
149900	20.777470	0
150100	20.832816	0
150300	20.888236	0
150500	20.943729	0
150700	20.999296	1
150900	21.054937	0
151100	21.110651	0
151300	21.166439	0
151500	21.222300	0
151700	21.278235	0
151900	21.334244	0
152100	21.390326	0
152300	21.446482	0
152500	21.502712	1
152700	21.559015	0
152900	21.615392	0
153100	21.671842	0
153300	21.728366	0
153500	21.784964	0
153700	21.841635	0
153900	21.898380	0
154100	21.955198	1
154300	22.012090	0
154500	22.069056	0
154700	22.126095	0
154900	22.183208	0
155100	22.240395	0
155300	22.297655	0
155500	22.354989	0
155700	22.412396	0
155900	22.469877	0
156100	22.527432	0
156300	22.585060	0
156500	22.642762	0
156700	22.700537	0
156900	22.758386	1
157100	22.816309	0
157300	22.874305	0
157500	22.932375	0
157700	22.990519	58753
157900	23.048736	675
158100	23.107027	92
158300	23.165391	35
158500	23.223829	17
158700	23.282341	13
158900	23.340926	3
159100	23.399585	3
159300	23.458317	2
159500	23.517123	4
159700	23.576003	1
159900	23.634956	3
160100	23.693983	0
160300	23.753084	2
160500	23.812258	1
160700	23.871506	1
160900	23.930827	2
161100	23.990222	531
161300	24.049691	1
161500	24.109233	0
161700	24.168849	0
161900	24.228539	0
162100	24.288302	0
162300	24.348138	0
162500	24.408049	0
162700	24.468033	0
162900	24.528090	0
163100	24.588221	0
163300	24.648426	0
163500	24.708705	0
163700	24.769057	0
163900	24.829482	0
164100	24.889982	0
164300	24.950555	7
164500	25.011201	853
164700	25.071921	0
164900	25.132715	0
165100	25.193582	0
165300	25.254523	0
165500	25.315538	0
165700	25.376626	0
165900	25.437788	0
166100	25.499023	0
166300	25.560332	0
166500	25.621715	0
166700	25.683171	0
166900	25.744701	0
167100	25.806305	0
167300	25.867982	0
167500	25.929733	17
167700	25.991557	6602
167900	26.053455	108
168100	26.115427	1
168300	26.177472	3
168500	26.239591	0
168700	26.301783	2
168900	26.364049	0
169100	26.426389	1
169300	26.488802	4
169500	26.551289	0
169700	26.613850	1
169900	26.676484	0
170100	26.739191	4
170300	26.801973	0
170500	26.864828	2
170700	26.927756	16
170900	26.990759	16082
171100	27.053834	15361
171300	27.116984	10
171500	27.180207	6
171700	27.243504	2
171900	27.306874	2
172100	27.370318	3
172300	27.433835	3
172500	27.497427	5
172700	27.561091	2
172900	27.624830	1
173100	27.688642	3
173300	27.752527	2
173500	27.816487	1
173700	27.880520	1
173900	27.944626	2643
174100	28.008806	6780
174300	28.073060	65
174500	28.137387	1
174700	28.201788	1
174900	28.266263	6
175100	28.330811	2
175300	28.395433	1
175500	28.460128	0
175700	28.524897	2
175900	28.589740	2
176100	28.654656	0
176300	28.719646	3
176500	28.784709	0
176700	28.849846	0
176900	28.915057	8
177100	28.980341	4546
177300	29.045699	21374
177500	29.111131	29
177700	29.176636	8
177900	29.242215	5
178100	29.307867	4
178300	29.373593	6
178500	29.439393	2
178700	29.505266	1
178900	29.571213	4
179100	29.637234	0
179300	29.703328	0
179500	29.769495	2
179700	29.835737	3
179900	29.902052	2
180100	29.968440	176
180300	30.034902	2898
180500	30.101438	5
180700	30.168048	2
180900	30.234731	2
181100	30.301487	2
181300	30.368318	1
181500	30.435222	3
181700	30.502199	0
181900	30.569250	0
182100	30.636375	2
182300	30.703573	0
182500	30.770845	0
182700	30.838191	1
182900	30.905610	0
183100	30.973103	195
183300	31.040669	4504
183500	31.108309	0
183700	31.176023	0
183900	31.243810	5
184100	31.311671	6
184300	31.379606	3
184500	31.447614	1
184700	31.515696	1
184900	31.583851	5
185100	31.652080	1
185300	31.720383	2
185500	31.788759	0
185700	31.857209	0
185900	31.925732	0
186100	31.994329	100
186300	32.063000	105
186500	32.131744	2
186700	32.200562	1
186900	32.269454	2
187100	32.338419	3
187300	32.407457	0
187500	32.476570	0
187700	32.545756	0
187900	32.615015	0
188100	32.684349	0
188300	32.753756	0
188500	32.823236	1
188700	32.892790	0
188900	32.962418	5
189100	33.032119	30
189300	33.101894	0
189500	33.171743	0
189700	33.241665	0
189900	33.311660	0
190100	33.381730	1
190300	33.451873	1
190500	33.522089	2
190700	33.592380	0
190900	33.662744	0
191100	33.733181	0
191300	33.803692	0
191500	33.874277	0
191700	33.944935	1
191900	34.015667	10
192100	34.086473	0
192300	34.157352	0
192500	34.228305	0
192700	34.299331	0
192900	34.370431	0
193100	34.441605	1
193300	34.512852	0
193500	34.584173	0
193700	34.655567	0
193900	34.727035	0
194100	34.798577	1
194300	34.870192	1
194500	34.941881	4
194700	35.013644	14
194900	35.085480	0
195100	35.157390	0
195300	35.229373	0
195500	35.301430	0
195700	35.373561	0
195900	35.445765	0
196100	35.518043	0
196300	35.590395	0
196500	35.662820	0
196700	35.735318	1
196900	35.807891	0
197100	35.880537	1
197300	35.953256	10
197500	36.026050	144
197700	36.098916	0
197900	36.171857	1
198100	36.244871	0
198300	36.317959	0
198500	36.391120	0
198700	36.464355	0
198900	36.537663	0
199100	36.611045	0
199300	36.684501	0
199500	36.758030	0
199700	36.831633	1
199900	36.905310	27
200100	36.979060	1642
200300	37.052884	49
200500	37.126781	2
200700	37.200753	2
200900	37.274797	2
201100	37.348915	1
201300	37.423107	0
201500	37.497373	0
201700	37.571712	1
201900	37.646125	0
202100	37.720611	2
202300	37.795171	0
202500	37.869805	1
202700	37.944512	93
202900	38.019293	3383
203100	38.094147	3
203300	38.169075	1
203500	38.244077	0
203700	38.319152	0
203900	38.394301	1
204100	38.469524	1
204300	38.544820	3
204500	38.620190	1
204700	38.695633	0
204900	38.771150	2
205100	38.846741	12
205300	38.922405	2381
205500	38.998143	33486
205700	39.073954	371
205900	39.149839	26
206100	39.225798	22
206300	39.301830	14
206500	39.377936	23
206700	39.454116	21
206900	39.530369	32
207100	39.606696	46
207300	39.683096	24
207500	39.759570	13
207700	39.836118	20
207900	39.912739	179
208100	39.989434	7962
208300	40.066202	862
