# Binning: 200 channels
# Deadtime Correction: on
Channel	m/z	Intensity
100	0.000227	0
300	0.000446	0
500	0.000739	0
700	0.001105	0
900	0.001544	0
1100	0.002057	0
1300	0.002643	0
1500	0.003303	0
1700	0.004035	0
1900	0.004842	0
2100	0.005721	0
2300	0.006674	0
2500	0.007700	0
2700	0.008800	0
2900	0.009973	0
3100	0.011220	0
3300	0.012539	0
3500	0.013933	0
3700	0.015399	0
3900	0.016939	0
4100	0.018552	0
4300	0.020239	0
4500	0.021999	0
4700	0.023832	0
4900	0.025739	0
5100	0.027719	0
5300	0.029773	0
5500	0.031900	0
5700	0.034100	0
5900	0.036374	0
6100	0.038721	0
6300	0.041141	0
6500	0.043635	0
6700	0.046202	0
6900	0.048842	0
7100	0.051556	0
7300	0.054343	0
7500	0.057204	0
7700	0.060138	0
7900	0.063145	0
8100	0.066226	0
8300	0.069380	0
8500	0.072607	0
8700	0.075908	0
8900	0.079282	0
9100	0.082730	0
9300	0.086251	0
9500	0.089845	0
9700	0.093513	0
9900	0.097254	0
10100	0.101068	0
10300	0.104956	0
10500	0.108917	0
10700	0.112952	0
10900	0.117060	0
11100	0.121241	0
11300	0.125496	0
11500	0.129824	0
11700	0.134225	0
11900	0.138700	0
12100	0.143248	0
12300	0.147869	0
12500	0.152564	0
12700	0.157332	0
12900	0.162174	0
13100	0.167089	0
13300	0.172077	0
13500	0.177139	0
13700	0.182274	0
13900	0.187483	0
14100	0.192764	0
14300	0.198120	0
14500	0.203548	0
14700	0.209050	0
14900	0.214625	0
15100	0.220274	0
15300	0.225996	0
15500	0.231791	0
15700	0.237660	0
15900	0.243602	0
16100	0.249618	0
16300	0.255707	0
16500	0.261869	0
16700	0.268105	0
16900	0.274414	0
17100	0.280796	0
17300	0.287252	0
17500	0.293781	0
17700	0.300384	0
17900	0.307059	0
18100	0.313809	0
18300	0.320631	0
18500	0.327527	0
18700	0.334497	0
18900	0.341539	0
19100	0.348655	0
19300	0.355845	0
19500	0.363108	0
19700	0.370444	0
19900	0.377854	0
20100	0.385336	0
20300	0.392893	0
20500	0.400522	0
20700	0.408226	0
20900	0.416002	0
21100	0.423852	0
21300	0.431775	0
21500	0.439771	0
21700	0.447841	0
21900	0.455985	0
22100	0.464201	0
22300	0.472491	0
22500	0.480855	0
22700	0.489292	0
22900	0.497802	0
23100	0.506385	0
23300	0.515042	0
23500	0.523772	0
23700	0.532576	0
23900	0.541453	0
24100	0.550403	0
24300	0.559427	0
24500	0.568524	0
24700	0.577695	0
24900	0.586938	0
25100	0.596256	0
25300	0.605646	0
25500	0.615110	0
25700	0.624648	0
25900	0.634258	0
26100	0.643942	0
26300	0.653700	0
26500	0.663531	0
26700	0.673435	0
26900	0.683412	0
27100	0.693463	0
27300	0.703588	0
27500	0.713785	0
27700	0.724056	0
27900	0.734401	0
28100	0.744818	0
28300	0.755310	0
28500	0.765874	0
28700	0.776512	0
28900	0.787223	0
29100	0.798008	0
29300	0.808866	0
29500	0.819797	0
29700	0.830802	0
29900	0.841880	0
30100	0.853032	0
30300	0.864256	0
30500	0.875555	0
30700	0.886926	0
30900	0.898371	0
31100	0.909890	0
31300	0.921481	0
31500	0.933146	0
31700	0.944885	0
31900	0.956697	0
32100	0.968582	0
32300	0.980540	0
32500	0.992572	0
32700	1.004678	11602
32900	1.016856	2
33100	1.029108	0
33300	1.041434	0
33500	1.053833	0
33700	1.066305	0
33900	1.078850	0
34100	1.091469	0
34300	1.104161	2
34500	1.116927	0
34700	1.129766	0
34900	1.142679	0
35100	1.155664	0
35300	1.168723	0
35500	1.181856	0
35700	1.195062	0
35900	1.208341	0
36100	1.221694	0
36300	1.235120	0
36500	1.248619	0
36700	1.262192	0
36900	1.275838	0
37100	1.289557	0
37300	1.303350	0
37500	1.317216	0
37700	1.331156	0
37900	1.345169	0
38100	1.359255	0
38300	1.373415	0
38500	1.387648	0
38700	1.401954	0
38900	1.416334	0
39100	1.430787	0
39300	1.445314	0
39500	1.459914	0
39700	1.474587	0
39900	1.489334	0
40100	1.504154	0
40300	1.519047	0
40500	1.534014	0
40700	1.549054	0
40900	1.564167	0
41100	1.579354	0
41300	1.594615	0
41500	1.609948	0
41700	1.625355	0
41900	1.640836	0
42100	1.656389	0
42300	1.672016	0
42500	1.687717	0
42700	1.703491	0
42900	1.719338	0
43100	1.735259	0
43300	1.751253	0
43500	1.767320	0
43700	1.783461	0
43900	1.799675	0
44100	1.815962	0
44300	1.832323	0
44500	1.848757	0
44700	1.865265	0
44900	1.881846	0
45100	1.898500	0
45300	1.915227	0
45500	1.932029	0
45700	1.948903	0
45900	1.965851	0
46100	1.982872	0
46300	1.999966	0
46500	2.017134	385
46700	2.034376	0
46900	2.051690	0
47100	2.069078	0
47300	2.086540	0
47500	2.104074	0
47700	2.121682	0
47900	2.139364	0
48100	2.157119	0
48300	2.174947	0
48500	2.192849	0
48700	2.210824	0
48900	2.228872	0
49100	2.246994	0
49300	2.265189	0
49500	2.283457	0
49700	2.301799	0
49900	2.320214	0
50100	2.338703	0
50300	2.357265	0
50500	2.375900	0
50700	2.394609	0
50900	2.413391	0
51100	2.432246	0
51300	2.451175	0
51500	2.470177	0
51700	2.489253	0
51900	2.508402	0
52100	2.527624	0
52300	2.546919	0
52500	2.566288	0
52700	2.585731	0
52900	2.605247	0
53100	2.624836	0
53300	2.644498	0
53500	2.664234	0
53700	2.684043	0
53900	2.703926	0
54100	2.723882	0
54300	2.743911	0
54500	2.764014	0
54700	2.784190	0
54900	2.804440	0
55100	2.824762	0
55300	2.845159	0
55500	2.865628	0
55700	2.886171	0
55900	2.906787	0
56100	2.927477	0
56300	2.948240	0
56500	2.969077	0
56700	2.989986	0
56900	3.010970	0
57100	3.032026	34
57300	3.053156	0
57500	3.074359	0
57700	3.095636	0
57900	3.116986	0
58100	3.138409	0
58300	3.159906	0
58500	3.181476	0
58700	3.203120	0
58900	3.224837	0
59100	3.246627	0
59300	3.268491	0
59500	3.290428	0
59700	3.312438	0
59900	3.334522	0
60100	3.356679	0
60300	3.378909	0
60500	3.401213	0
60700	3.423590	0
60900	3.446041	0
61100	3.468565	0
61300	3.491162	0
61500	3.513833	0
61700	3.536577	0
61900	3.559394	0
62100	3.582285	0
62300	3.605249	0
62500	3.628287	0
62700	3.651398	0
62900	3.674582	0
63100	3.697840	0
63300	3.721171	0
63500	3.744575	0
63700	3.768053	0
63900	3.791604	0
64100	3.815229	0
64300	3.838927	0
64500	3.862698	0
64700	3.886542	0
64900	3.910460	0
65100	3.934452	0
65300	3.958517	0
65500	3.982655	0
65700	4.006866	0
65900	4.031151	0
66100	4.055509	0
66300	4.079941	0
66500	4.104446	0
66700	4.129024	0
66900	4.153676	0
67100	4.178401	0
67300	4.203199	0
67500	4.228071	0
67700	4.253016	0
67900	4.278035	0
68100	4.303127	0
68300	4.328292	0
68500	4.353531	0
68700	4.378843	0
68900	4.404228	0
69100	4.429687	0
69300	4.455219	0
69500	4.480825	0
69700	4.506504	0
69900	4.532256	0
70100	4.558082	0
70300	4.583981	0
70500	4.609953	0
70700	4.635999	0
70900	4.662118	0
71100	4.688311	0
71300	4.714576	0
71500	4.740916	0
71700	4.767328	0
71900	4.793814	0
72100	4.820374	0
72300	4.847006	0
72500	4.873712	0
72700	4.900492	0
72900	4.927345	0
73100	4.954271	0
73300	4.981270	0
73500	5.008343	0
73700	5.035490	0
73900	5.062709	0
74100	5.090002	0
74300	5.117369	0
74500	5.144809	0
74700	5.172322	0
74900	5.199908	0
75100	5.227568	0
75300	5.255302	0
75500	5.283108	0
75700	5.310988	0
75900	5.338942	0
76100	5.366968	0
76300	5.395069	0
76500	5.423242	0
76700	5.451489	0
76900	5.479809	0
77100	5.508203	0
77300	5.536670	0
77500	5.565210	0
77700	5.593824	0
77900	5.622511	0
78100	5.651272	0
78300	5.680105	0
78500	5.709013	0
78700	5.737993	0
78900	5.767047	0
79100	5.796174	0
79300	5.825375	0
79500	5.854649	0
79700	5.883997	0
79900	5.913417	0
80100	5.942912	0
80300	5.972479	0
80500	6.002120	22
80700	6.031834	1
80900	6.061622	0
81100	6.091483	0
81300	6.121418	0
81500	6.151425	0
81700	6.181506	0
81900	6.211661	0
82100	6.241889	0
82300	6.272190	0
82500	6.302565	0
82700	6.333013	0
82900	6.363534	0
83100	6.394129	0
83300	6.424797	0
83500	6.455539	0
83700	6.486353	0
83900	6.517242	0
84100	6.548203	0
84300	6.579238	0
84500	6.610347	0
84700	6.641528	0
84900	6.672783	0
85100	6.704112	0
85300	6.735514	0
85500	6.766989	0
85700	6.798537	0
85900	6.830159	0
86100	6.861855	0
86300	6.893623	0
86500	6.925465	0
86700	6.957381	0
86900	6.989370	0
87100	7.021432	304
87300	7.053567	0
87500	7.085776	0
87700	7.118058	0
87900	7.150414	0
88100	7.182843	0
88300	7.215345	0
88500	7.247921	0
88700	7.280570	0
88900	7.313293	0
89100	7.346089	0
89300	7.378958	0
89500	7.411901	0
89700	7.444917	0
89900	7.478006	0
90100	7.511169	0
90300	7.544405	0
90500	7.577714	0
90700	7.611097	0
90900	7.644553	0
91100	7.678083	0
91300	7.711686	0
91500	7.745362	0
91700	7.779112	0
91900	7.812935	0
92100	7.846831	0
92300	7.880801	0
92500	7.914844	0
92700	7.948961	0
92900	7.983151	0
93100	8.017414	0
93300	8.051751	0
93500	8.086161	0
93700	8.120644	0
93900	8.155201	0
94100	8.189831	0
94300	8.224534	0
94500	8.259311	0
94700	8.294162	0
94900	8.329085	0
95100	8.364082	0
95300	8.399153	0
95500	8.434296	0
95700	8.469513	0
95900	8.504804	0
96100	8.540168	0
96300	8.575605	0
96500	8.611115	0
96700	8.646699	0
96900	8.682357	0
97100	8.718087	0
97300	8.753892	0
97500	8.789769	0
97700	8.825720	0
97900	8.861744	0
98100	8.897842	0
98300	8.934012	0
98500	8.970257	0
98700	9.006574	0
98900	9.042965	0
99100	9.079430	0
99300	9.115968	0
99500	9.152579	0
99700	9.189263	0
99900	9.226021	0
100100	9.262852	0
100300	9.299757	0
100500	9.336735	0
100700	9.373786	0
100900	9.410911	0
101100	9.448109	0
101300	9.485381	0
101500	9.522726	0
101700	9.560144	0
101900	9.597635	0
102100	9.635200	0
102300	9.672839	0
102500	9.710551	0
102700	9.748336	0
102900	9.786194	0
103100	9.824126	0
103300	9.862131	0
103500	9.900210	0
103700	9.938362	0
103900	9.976587	0
104100	10.014886	9
104300	10.053258	0
104500	10.091703	0
104700	10.130222	0
104900	10.168814	1
105100	10.207480	0
105300	10.246218	0
105500	10.285031	0
105700	10.323916	0
105900	10.362875	1
106100	10.401908	0
106300	10.441013	0
106500	10.480193	0
106700	10.519445	0
106900	10.558771	0
107100	10.598170	0
107300	10.637643	0
107500	10.677189	0
107700	10.716808	0
107900	10.756501	0
108100	10.796267	0
108300	10.836106	0
108500	10.876019	0
108700	10.916005	0
108900	10.956065	0
109100	10.996198	32
109300	11.036404	1
109500	11.076684	0
109700	11.117037	0
109900	11.157463	0
110100	11.197963	0
110300	11.238536	0
110500	11.279183	0
110700	11.319903	0
110900	11.360696	0
111100	11.401563	0
111300	11.442503	0
111500	11.483516	0
111700	11.524603	0
111900	11.565763	0
112100	11.606997	0
112300	11.648304	0
112500	11.689684	0
112700	11.731137	0
112900	11.772664	0
113100	11.814265	0
113300	11.855939	0
113500	11.897686	0
113700	11.939506	1
113900	11.981400	3623
114100	12.023367	153
114300	12.065408	0
114500	12.107522	0
114700	12.149709	0
114900	12.191970	0
115100	12.234304	1
115300	12.276711	0
115500	12.319192	0
115700	12.361746	0
115900	12.404374	0
116100	12.447075	0
116300	12.489849	0
116500	12.532697	0
116700	12.575618	0
116900	12.618612	0
117100	12.661680	0
117300	12.704821	0
117500	12.748036	0
117700	12.791323	0
117900	12.834685	0
118100	12.878119	0
118300	12.921627	0
118500	12.965209	0
118700	13.008863	2597
118900	13.052592	1
119100	13.096393	0
119300	13.140268	0
119500	13.184216	1
119700	13.228238	0
119900	13.272333	0
120100	13.316501	0
120300	13.360743	0
120500	13.405058	0
120700	13.449446	0
120900	13.493908	0
121100	13.538443	0
121300	13.583052	0
121500	13.627734	0
121700	13.672489	0
121900	13.717318	0
122100	13.762220	0
122300	13.807195	0
122500	13.852244	0
122700	13.897366	0
122900	13.942562	0
123100	13.987831	57
123300	14.033173	4330
123500	14.078589	0
123700	14.124078	0
123900	14.169640	0
124100	14.215276	0
124300	14.260985	0
124500	14.306767	0
124700	14.352623	0
124900	14.398552	0
125100	14.444555	0
125300	14.490631	0
125500	14.536780	0
125700	14.583003	0
125900	14.629299	0
126100	14.675669	0
126300	14.722112	0
126500	14.768628	0
126700	14.815217	0
126900	14.861880	0
127100	14.908617	0
127300	14.955426	0
127500	15.002309	9738
127700	15.049266	921
127900	15.096296	0
128100	15.143399	0
128300	15.190575	0
128500	15.237825	1
128700	15.285148	3
128900	15.332545	0
129100	15.380015	0
129300	15.427559	0
129500	15.475175	0
129700	15.522865	0
129900	15.570629	0
130100	15.618466	0
130300	15.666376	0
130500	15.714360	0
130700	15.762417	0
130900	15.810547	0
131100	15.858751	0
131300	15.907028	0
131500	15.955378	1
131700	16.003802	303
131900	16.052299	57
132100	16.100870	0
132300	16.149514	0
132500	16.198231	0
132700	16.247022	0
132900	16.295886	0
133100	16.344824	0
133300	16.393834	0
133500	16.442919	0
133700	16.492076	0
133900	16.541307	0
134100	16.590611	0
134300	16.639989	0
134500	16.689440	0
134700	16.738964	0
134900	16.788562	0
135100	16.838233	0
135300	16.887978	0
135500	16.937796	0
135700	16.987687	100
135900	17.037652	108
136100	17.087690	0
136300	17.137801	0
136500	17.187986	0
136700	17.238244	0
136900	17.288575	0
137100	17.338980	0
137300	17.389458	0
137500	17.440010	0
137700	17.490635	0
137900	17.541333	0
138100	17.592105	0
138300	17.642950	0
138500	17.693869	0
138700	17.744860	0
138900	17.795926	0
139100	17.847064	0
139300	17.898276	0
139500	17.949561	0
139700	18.000920	130
139900	18.052352	1450
140100	18.103858	2
140300	18.155436	0
140500	18.207089	1
140700	18.258814	3
140900	18.310613	1
141100	18.362485	0
141300	18.414431	0
141500	18.466450	1
141700	18.518542	1
141900	18.570708	0
142100	18.622947	0
142300	18.675260	1
142500	18.727646	0
142700	18.780105	0
142900	18.832637	0
143100	18.885243	1
143300	18.937923	0
143500	18.990675	85
143700	19.043502	147
143900	19.096401	1
144100	19.149374	0
144300	19.202420	0
144500	19.255540	0
144700	19.308733	0
144900	19.361999	0
145100	19.415339	0
145300	19.468752	0
145500	19.522238	0
145700	19.575798	0
145900	19.629431	0
146100	19.683138	0
146300	19.736917	1
146500	19.790771	0
146700	19.844697	0
146900	19.898697	2
147100	19.952771	14
147300	20.006918	11
147500	20.061138	0
147700	20.115431	0
147900	20.169798	1
148100	20.224238	2
148300	20.278752	0
148500	20.333339	0
148700	20.387999	2
148900	20.442733	1
149100	20.497540	0
149300	20.552421	3
149500	20.607375	0
149700	20.662402	1
149900	20.717502	0
150100	20.772676	1
150300	20.827924	0
150500	20.883244	0
150700	20.938638	0
150900	20.994106	0
151100	21.049647	2
151300	21.105261	0
151500	21.160948	1
151700	21.216709	2
151900	21.272544	0
152100	21.328451	2
152300	21.384432	1
152500	21.440487	1
152700	21.496614	1
152900	21.552816	0
153100	21.609090	3
153300	21.665438	0
153500	21.721859	0
153700	21.778354	1
153900	21.834922	0
154100	21.891563	0
154300	21.948278	2
154500	22.005066	0
154700	22.061928	1
154900	22.118863	0
155100	22.175871	1
155300	22.232952	0
155500	22.290107	2
155700	22.347336	0
155900	22.404637	0
156100	22.462012	0
156300	22.519461	0
156500	22.576983	0
156700	22.634578	0
156900	22.692246	0
157100	22.749988	0
157300	22.807804	2
157500	22.865692	3
157700	22.923654	34
157900	22.981690	830470
158100	23.039799	5015
158300	23.097981	339
158500	23.156236	141
158700	23.214565	66
158900	23.272968	43
159100	23.331443	31
159300	23.389992	24
159500	23.448615	13
159700	23.507310	13
159900	23.566079	9
160100	23.624922	7
160300	23.683838	6
160500	23.742827	9
160700	23.801890	6
160900	23.861026	2
161100	23.920235	5
161300	23.979518	1058
161500	24.038874	4
161700	24.098303	4
161900	24.157806	6
162100	24.217382	2
162300	24.277032	3
162500	24.336755	3
162700	24.396551	2
162900	24.456421	0
163100	24.516364	0
163300	24.576380	0
163500	24.636470	0
163700	24.696633	2
163900	24.756870	1
164100	24.817180	0
164300	24.877563	0
164500	24.938020	3
164700	24.998550	1142
164900	25.059153	3
165100	25.119830	1
165300	25.180580	2
165500	25.241404	0
165700	25.302300	0
165900	25.363271	3
166100	25.424314	1
166300	25.485431	0
166500	25.546622	0
166700	25.607885	0
166900	25.669222	0
167100	25.730633	0
167300	25.792117	0
167500	25.853674	0
167700	25.915305	10
167900	25.977009	547
168100	26.038786	6461
168300	26.100637	3
168500	26.162561	0
168700	26.224558	2
168900	26.286629	0
169100	26.348773	0
169300	26.410991	3
169500	26.473282	1
169700	26.535646	1
169900	26.598084	3
170100	26.660595	2
170300	26.723179	1
170500	26.785837	1
170700	26.848568	1
170900	26.911372	1
171100	26.974250	3041
171300	27.037202	26000
171500	27.100226	5
171700	27.163324	7
171900	27.226496	6
172100	27.289740	0
172300	27.353058	7
172500	27.416450	0
172700	27.479915	2
172900	27.543453	1
173100	27.607065	0
173300	27.670750	0
173500	27.734508	2
173700	27.798340	2
173900	27.862245	4
174100	27.926223	18
174300	27.990275	5918
174500	28.054400	4144
174700	28.118599	2
174900	28.182871	0
175100	28.247216	1
175300	28.311635	1
175500	28.376127	1
175700	28.440692	0
175900	28.505331	2
176100	28.570043	3
176300	28.634829	2
176500	28.699688	0
176700	28.764620	0
176900	28.829625	1
177100	28.894704	3
177300	28.959857	585
177500	29.025083	21754
177700	29.090382	33
177900	29.155754	8
178100	29.221200	4
178300	29.286719	4
178500	29.352312	9
178700	29.417978	2
178900	29.483717	0
179100	29.549530	2
179300	29.615416	1
179500	29.681376	2
179700	29.747408	0
179900	29.813515	0
180100	29.879694	3
180300	29.945947	126
180500	30.012273	3424
180700	30.078673	132
180900	30.145146	0
181100	30.211693	4
181300	30.278312	0
181500	30.345006	1
181700	30.411772	1
181900	30.478612	0
182100	30.545525	1
182300	30.612512	0
182500	30.679572	0
182700	30.746705	0
182900	30.813912	1
183100	30.881192	0
183300	30.948546	31
183500	31.015973	2670
183700	31.083473	5
183900	31.151047	2
184100	31.218694	10
184300	31.286414	3
184500	31.354208	1
184700	31.422075	0
184900	31.490015	2
185100	31.558029	5
185300	31.626116	0
185500	31.694277	0
185700	31.762511	0
185900	31.830818	1
186100	31.899199	0
186300	31.967653	35
186500	32.036180	141
186700	32.104781	0
186900	32.173455	0
187100	32.242203	0
187300	32.311024	2
187500	32.379918	1
187700	32.448886	1
187900	32.517927	0
188100	32.587041	0
188300	32.656229	0
188500	32.725490	0
188700	32.794825	0
188900	32.864233	0
189100	32.933714	0
189300	33.003268	21
189500	33.072896	4
189700	33.142598	1
189900	33.212373	0
190100	33.282221	0
190300	33.352142	3
190500	33.422137	0
190700	33.492205	1
190900	33.562347	0
191100	33.632562	0
191300	33.702850	0
191500	33.773212	1
191700	33.843647	0
191900	33.914155	1
192100	33.984737	0
192300	34.055392	6
192500	34.126121	0
192700	34.196923	0
192900	34.267798	0
193100	34.338747	0
193300	34.409769	0
193500	34.480864	0
193700	34.552033	1
193900	34.623275	0
194100	34.694591	0
194300	34.765980	1
194500	34.837442	1
194700	34.908978	0
194900	34.980587	144
195100	35.052269	0
195300	35.124025	0
195500	35.195854	0
195700	35.267756	0
195900	35.339732	0
196100	35.411782	1
196300	35.483904	0
196500	35.556100	0
196700	35.628370	0
196900	35.700712	0
197100	35.773128	0
197300	35.845618	1
197500	35.918181	1
197700	35.990817	258
197900	36.063526	1
198100	36.136309	2
198300	36.209166	0
198500	36.282095	0
198700	36.355098	0
198900	36.428175	0
199100	36.501325	0
199300	36.574548	0
199500	36.647844	0
199700	36.721214	0
199900	36.794658	1
200100	36.868174	6
200300	36.941764	195
200500	37.015428	2171
200700	37.089164	2
200900	37.162975	1
201100	37.236858	1
201300	37.310815	2
201500	37.384845	3
201700	37.458949	2
201900	37.533126	2
202100	37.607376	1
202300	37.681700	3
202500	37.756097	1
202700	37.830567	0
202900	37.905111	12
203100	37.979729	3311
203300	38.054419	878
203500	38.129183	3
203700	38.204020	5
203900	38.278931	0
204100	38.353915	2
204300	38.428973	0
204500	38.504103	2
204700	38.579308	1
204900	38.654585	0
205100	38.729936	1
205300	38.805360	7
205500	38.880858	72
205700	38.956429	40488
205900	39.032073	20206
206100	39.107791	79
206300	39.183582	30
206500	39.259447	24
206700	39.335385	16
206900	39.411396	26
207100	39.487481	31
207300	39.563639	39
207500	39.639870	38
207700	39.716175	14
207900	39.792553	18
208100	39.869004	25
208300	39.945529	16223
