# Binning: 200 channels
# Deadtime Correction: on
Channel	m/z	Intensity
100	0.000227	0
300	0.000446	0
500	0.000739	0
700	0.001106	0
900	0.001546	0
1100	0.002060	0
1300	0.002647	0
1500	0.003308	0
1700	0.004042	0
1900	0.004850	0
2100	0.005732	0
2300	0.006687	0
2500	0.007715	0
2700	0.008817	0
2900	0.009993	0
3100	0.011243	1
3300	0.012566	0
3500	0.013962	0
3700	0.015432	0
3900	0.016976	0
4100	0.018593	0
4300	0.020284	0
4500	0.022048	0
4700	0.023886	0
4900	0.025797	0
5100	0.027782	0
5300	0.029841	0
5500	0.031973	0
5700	0.034179	0
5900	0.036458	0
6100	0.038811	0
6300	0.041237	0
6500	0.043737	0
6700	0.046311	0
6900	0.048958	0
7100	0.051678	0
7300	0.054473	0
7500	0.057340	0
7700	0.060282	0
7900	0.063297	0
8100	0.066385	0
8300	0.069547	0
8500	0.072783	0
8700	0.076092	0
8900	0.079475	0
9100	0.082931	0
9300	0.086461	0
9500	0.090064	0
9700	0.093741	0
9900	0.097492	0
10100	0.101316	0
10300	0.105214	0
10500	0.109185	0
10700	0.113230	0
10900	0.117348	0
11100	0.121540	0
11300	0.125806	0
11500	0.130145	0
11700	0.134558	0
11900	0.139044	0
12100	0.143604	0
12300	0.148237	0
12500	0.152944	0
12700	0.157724	0
12900	0.162578	0
13100	0.167506	0
13300	0.172507	0
13500	0.177582	0
13700	0.182730	0
13900	0.187952	0
14100	0.193248	0
14300	0.198617	0
14500	0.204059	0
14700	0.209575	0
14900	0.215165	0
15100	0.220828	0
15300	0.226565	0
15500	0.232376	0
15700	0.238260	0
15900	0.244217	0
16100	0.250248	0
16300	0.256353	0
16500	0.262531	0
16700	0.268783	0
16900	0.275108	0
17100	0.281507	0
17300	0.287980	0
17500	0.294526	0
17700	0.301145	0
17900	0.307839	0
18100	0.314605	0
18300	0.321446	0
18500	0.328360	0
18700	0.335347	0
18900	0.342408	0
19100	0.349543	0
19300	0.356751	0
19500	0.364033	0
19700	0.371388	0
19900	0.378817	0
20100	0.386319	0
20300	0.393895	0
20500	0.401545	0
20700	0.409268	0
20900	0.417064	0
21100	0.424935	0
21300	0.432878	0
21500	0.440896	0
21700	0.448987	0
21900	0.457151	0
22100	0.465389	0
22300	0.473701	0
22500	0.482086	0
22700	0.490545	0
22900	0.499077	0
23100	0.507683	0
23300	0.516363	0
23500	0.525116	0
23700	0.533942	0
23900	0.542842	0
24100	0.551816	0
24300	0.560863	0
24500	0.569984	0
24700	0.579179	0
24900	0.588447	0
25100	0.597788	1
25300	0.607203	0
25500	0.616692	0
25700	0.626254	0
25900	0.635890	0
26100	0.645600	0
26300	0.655382	0
26500	0.665239	0
26700	0.675169	0
26900	0.685173	0
27100	0.695250	0
27300	0.705401	0
27500	0.715625	0
27700	0.725923	0
27900	0.736294	0
28100	0.746739	0
28300	0.757258	0
28500	0.767850	0
28700	0.778516	0
28900	0.789255	0
29100	0.800068	0
29300	0.810955	0
29500	0.821915	0
29700	0.832948	0
29900	0.844055	0
30100	0.855236	0
30300	0.866490	0
30500	0.877818	0
30700	0.889219	0
30900	0.900694	0
31100	0.912243	0
31300	0.923865	0
31500	0.935561	0
31700	0.947330	0
31900	0.959173	0
32100	0.971089	0
32300	0.983079	0
32500	0.995142	0
32700	1.007279	22290
32900	1.019490	1
33100	1.031774	0
33300	1.044132	1
33500	1.056563	0
33700	1.069068	0
33900	1.081646	0
34100	1.094298	0
34300	1.107024	0
34500	1.119823	0
34700	1.132696	0
34900	1.145642	0
35100	1.158662	0
35300	1.171755	0
35500	1.184922	0
35700	1.198163	0
35900	1.211477	0
36100	1.224865	0
36300	1.238326	0
36500	1.251861	0
36700	1.265469	0
36900	1.279151	0
37100	1.292906	0
37300	1.306735	0
37500	1.320638	0
37700	1.334614	0
37900	1.348664	0
38100	1.362787	0
38300	1.376984	0
38500	1.391255	0
38700	1.405599	0
38900	1.420016	0
39100	1.434507	0
39300	1.449072	0
39500	1.463710	0
39700	1.478422	0
39900	1.493207	0
40100	1.508066	0
40300	1.522999	0
40500	1.538005	0
40700	1.553085	0
40900	1.568238	0
41100	1.583465	0
41300	1.598765	0
41500	1.614139	0
41700	1.629586	0
41900	1.645108	0
42100	1.660702	0
42300	1.676370	0
42500	1.692112	1
42700	1.707927	0
42900	1.723816	0
43100	1.739779	0
43300	1.755815	0
43500	1.771924	0
43700	1.788107	0
43900	1.804364	0
44100	1.820694	0
44300	1.837098	0
44500	1.853576	0
44700	1.870127	0
44900	1.886751	0
45100	1.903449	0
45300	1.920221	0
45500	1.937066	0
45700	1.953985	0
45900	1.970977	0
46100	1.988043	0
46300	2.005183	0
46500	2.022396	983
46700	2.039682	0
46900	2.057043	0
47100	2.074476	0
47300	2.091984	0
47500	2.109565	0
47700	2.127219	0
47900	2.144947	0
48100	2.162749	0
48300	2.180624	0
48500	2.198573	0
48700	2.216595	0
48900	2.234691	0
49100	2.252860	0
49300	2.271103	0
49500	2.289420	0
49700	2.307810	0
49900	2.326273	0
50100	2.344811	0
50300	2.363421	0
50500	2.382106	0
50700	2.400864	0
50900	2.419695	0
51100	2.438600	0
51300	2.457579	0
51500	2.476631	0
51700	2.495757	0
51900	2.514956	0
52100	2.534229	0
52300	2.553576	0
52500	2.572996	0
52700	2.592489	0
52900	2.612056	0
53100	2.631697	0
53300	2.651411	0
53500	2.671199	0
53700	2.691061	0
53900	2.710996	0
54100	2.731004	0
54300	2.751086	0
54500	2.771242	0
54700	2.791471	0
54900	2.811774	0
55100	2.832150	0
55300	2.852600	0
55500	2.873124	0
55700	2.893721	0
55900	2.914392	0
56100	2.935136	0
56300	2.955954	0
56500	2.976845	0
56700	2.997810	0
56900	3.018848	118
57100	3.039960	0
57300	3.061146	0
57500	3.082405	0
57700	3.103738	0
57900	3.125144	0
58100	3.146624	0
58300	3.168177	0
58500	3.189804	0
58700	3.211505	0
58900	3.233279	0
59100	3.255127	0
59300	3.277048	0
59500	3.299043	0
59700	3.321111	0
59900	3.343253	0
60100	3.365469	0
60300	3.387758	0
60500	3.410120	0
60700	3.432557	0
60900	3.455066	0
61100	3.477650	0
61300	3.500307	0
61500	3.523037	0
61700	3.545841	0
61900	3.568719	0
62100	3.591670	0
62300	3.614695	0
62500	3.637793	0
62700	3.660965	0
62900	3.684210	0
63100	3.707529	0
63300	3.730922	0
63500	3.754388	0
63700	3.777928	0
63900	3.801541	0
64100	3.825228	0
64300	3.848988	0
64500	3.872822	0
64700	3.896729	0
64900	3.920711	0
65100	3.944765	0
65300	3.968893	0
65500	3.993095	0
65700	4.017371	0
65900	4.041719	0
66100	4.066142	0
66300	4.090638	0
66500	4.115208	0
66700	4.139851	0
66900	4.164568	0
67100	4.189358	0
67300	4.214222	0
67500	4.239159	0
67700	4.264170	0
67900	4.289255	0
68100	4.314413	0
68300	4.339645	0
68500	4.364950	0
68700	4.390329	0
68900	4.415781	0
69100	4.441307	0
69300	4.466907	0
69500	4.492580	0
69700	4.518326	0
69900	4.544147	0
70100	4.570040	0
70300	4.596008	0
70500	4.622049	0
70700	4.648163	0
70900	4.674351	0
71100	4.700613	0
71300	4.726948	0
71500	4.753357	0
71700	4.779839	0
71900	4.806395	0
72100	4.833024	0
72300	4.859727	0
72500	4.886504	0
72700	4.913354	0
72900	4.940278	0
73100	4.967275	0
73300	4.994346	0
73500	5.021490	1
73700	5.048708	0
73900	5.076000	0
74100	5.103365	0
74300	5.130803	0
74500	5.158316	0
74700	5.185902	0
74900	5.213561	0
75100	5.241294	0
75300	5.269100	0
75500	5.296980	0
75700	5.324934	0
75900	5.352961	0
76100	5.381062	0
76300	5.409236	0
76500	5.437484	0
76700	5.465806	0
76900	5.494201	0
77100	5.522669	0
77300	5.551211	0
77500	5.579827	1
77700	5.608516	1
77900	5.637279	0
78100	5.666116	0
78300	5.695026	0
78500	5.724009	0
78700	5.753066	0
78900	5.782197	0
79100	5.811401	0
79300	5.840679	0
79500	5.870030	0
79700	5.899455	0
79900	5.928954	0
80100	5.958526	0
80300	5.988171	1
80500	6.017891	19232
80700	6.047683	120
80900	6.077550	13
81100	6.107490	3
81300	6.137503	2
81500	6.167590	3
81700	6.197751	2
81900	6.227985	2
82100	6.258292	1
82300	6.288674	0
82500	6.319129	2
82700	6.349657	1
82900	6.380259	0
83100	6.410935	1
83300	6.441684	2
83500	6.472506	1
83700	6.503403	0
83900	6.534372	2
84100	6.565416	1
84300	6.596533	2
84500	6.627723	0
84700	6.658987	1
84900	6.690325	2
85100	6.721736	3
85300	6.753221	0
85500	6.784779	2
85700	6.816411	0
85900	6.848117	0
86100	6.879896	0
86300	6.911748	3
86500	6.943674	0
86700	6.975674	1
86900	7.007747	224919
87100	7.039894	4699
87300	7.072115	204
87500	7.104409	77
87700	7.136776	28
87900	7.169217	17
88100	7.201732	17
88300	7.234320	15
88500	7.266982	6
88700	7.299717	5
88900	7.332526	3
89100	7.365409	3
89300	7.398365	1
89500	7.431395	0
89700	7.464498	0
89900	7.497675	0
90100	7.530925	0
90300	7.564249	0
90500	7.597646	2
90700	7.631117	2
90900	7.664662	8
91100	7.698280	2
91300	7.731972	4
91500	7.765737	2
91700	7.799576	3
91900	7.833488	1
92100	7.867474	4
92300	7.901534	5
92500	7.935667	1
92700	7.969874	0
92900	8.004154	2
93100	8.038508	130
93300	8.072935	0
93500	8.107436	3
93700	8.142011	0
93900	8.176659	0
94100	8.211380	0
94300	8.246176	0
94500	8.281044	0
94700	8.315987	0
94900	8.351003	0
95100	8.386092	0
95300	8.421255	0
95500	8.456492	0
95700	8.491802	1
95900	8.527186	0
96100	8.562643	0
96300	8.598174	0
96500	8.633778	0
96700	8.669456	0
96900	8.705208	0
97100	8.741033	0
97300	8.776932	0
97500	8.812904	0
97700	8.848950	0
97900	8.885069	0
98100	8.921262	0
98300	8.957529	0
98500	8.993869	0
98700	9.030282	4
98900	9.066770	0
99100	9.103330	0
99300	9.139965	0
99500	9.176673	0
99700	9.213454	0
99900	9.250309	0
100100	9.287238	0
100300	9.324240	0
100500	9.361316	0
100700	9.398465	0
100900	9.435688	0
101100	9.472984	0
101300	9.510354	0
101500	9.547798	0
101700	9.585315	0
101900	9.622906	0
102100	9.660570	0
102300	9.698308	0
102500	9.736119	0
102700	9.774004	0
102900	9.811963	0
103100	9.849995	0
103300	9.888100	0
103500	9.926280	0
103700	9.964532	0
103900	10.002859	686
104100	10.041259	0
104300	10.079732	0
104500	10.118279	0
104700	10.156900	0
104900	10.195594	0
105100	10.234362	0
105300	10.273203	0
105500	10.312118	0
105700	10.351106	0
105900	10.390168	0
106100	10.429304	1
106300	10.468513	0
106500	10.507796	0
106700	10.547152	0
106900	10.586582	0
107100	10.626085	0
107300	10.665662	0
107500	10.705313	0
107700	10.745037	0
107900	10.784835	0
108100	10.824706	0
108300	10.864651	0
108500	10.904669	0
108700	10.944761	1
108900	10.984926	11
109100	11.025166	2432
109300	11.065478	1
109500	11.105864	0
109700	11.146324	0
109900	11.186857	0
110100	11.227464	0
110300	11.268145	0
110500	11.308899	0
110700	11.349726	0
110900	11.390628	0
111100	11.431602	0
111300	11.472651	0
111500	11.513772	0
111700	11.554968	0
111900	11.596237	0
112100	11.637579	0
112300	11.678995	0
112500	11.720485	0
112700	11.762048	0
112900	11.803685	0
113100	11.845395	0
113300	11.887179	0
113500	11.929037	0
113700	11.970968	25
113900	12.012973	2344
114100	12.055051	0
114300	12.097203	0
114500	12.139428	0
114700	12.181727	0
114900	12.224099	1
115100	12.266545	0
115300	12.309065	0
115500	12.351658	0
115700	12.394325	0
115900	12.437065	0
116100	12.479879	2
116300	12.522766	0
116500	12.565727	0
116700	12.608762	0
116900	12.651870	0
117100	12.695052	0
117300	12.738307	0
117500	12.781636	0
117700	12.825038	0
117900	12.868514	0
118100	12.912064	0
118300	12.955687	2
118500	12.999383	3400
118700	13.043153	78
118900	13.086997	0
119100	13.130915	0
119300	13.174905	1
119500	13.218970	0
119700	13.263108	0
119900	13.307320	0
120100	13.351605	0
120300	13.395963	0
120500	13.440396	0
120700	13.484902	0
120900	13.529481	0
121100	13.574134	0
121300	13.618861	0
121500	13.663661	0
121700	13.708534	1
121900	13.753482	0
122100	13.798502	0
122300	13.843597	0
122500	13.888765	0
122700	13.934006	1
122900	13.979321	25
123100	14.024710	9652
123300	14.070172	0
123500	14.115708	0
123700	14.161317	2
123900	14.207000	0
124100	14.252757	0
124300	14.298587	0
124500	14.344490	2
124700	14.390467	0
124900	14.436518	0
125100	14.482642	0
125300	14.528840	0
125500	14.575112	0
125700	14.621457	0
125900	14.667875	0
126100	14.714367	0
126300	14.760933	0
126500	14.807572	0
126700	14.854285	1
126900	14.901072	0
127100	14.947932	0
127300	14.994865	662
127500	15.041872	40993
127700	15.088953	12
127900	15.136107	8
128100	15.183335	6
128300	15.230636	2
128500	15.278011	5
128700	15.325460	4
128900	15.372982	0
129100	15.420577	0
129300	15.468246	1
129500	15.515989	2
129700	15.563805	0
129900	15.611695	0
130100	15.659659	1
130300	15.707696	0
130500	15.755806	1
130700	15.803990	0
130900	15.852248	1
131100	15.900579	0
131300	15.948984	2
131500	15.997463	541
131700	16.046015	632
131900	16.094640	2
132100	16.143339	0
132300	16.192112	0
132500	16.240958	1
132700	16.289878	0
132900	16.338871	0
133100	16.387938	0
133300	16.437079	0
133500	16.486293	0
133700	16.535580	0
133900	16.584941	0
134100	16.634376	0
134300	16.683884	0
134500	16.733466	0
134700	16.783122	0
134900	16.832851	0
135100	16.882653	0
135300	16.932530	0
135500	16.982479	314
135700	17.032503	902
135900	17.082599	1
136100	17.132770	0
136300	17.183014	0
136500	17.233331	0
136700	17.283722	0
136900	17.334187	0
137100	17.384725	0
137300	17.435337	0
137500	17.486022	0
137700	17.536781	0
137900	17.587614	0
138100	17.638520	0
138300	17.689499	0
138500	17.740553	1
138700	17.791679	0
138900	17.842880	0
139100	17.894154	0
139300	17.945501	0
139500	17.996922	268
139700	18.048417	10964
139900	18.099985	18
140100	18.151627	8
140300	18.203342	5
140500	18.255131	2
140700	18.306993	3
140900	18.358929	1
141100	18.410939	1
141300	18.463022	0
141500	18.515178	0
141700	18.567409	0
141900	18.619712	1
142100	18.672090	0
142300	18.724541	0
142500	18.777065	0
142700	18.829663	0
142900	18.882335	1
143100	18.935080	0
143300	18.987899	201
143500	19.040791	2454
143700	19.093757	5
143900	19.146796	4
144100	19.199909	3
144300	19.253096	1
144500	19.306356	1
144700	19.359690	1
144900	19.413097	0
145100	19.466578	0
145300	19.520132	0
145500	19.573760	2
145700	19.627462	0
145900	19.681237	2
146100	19.735086	1
146300	19.789008	0
146500	19.843004	0
146700	19.897073	1
146900	19.951216	31
147100	20.005433	410
147300	20.059723	1
147500	20.114086	0
147700	20.168524	1
147900	20.223034	1
148100	20.277619	1
148300	20.332277	0
148500	20.387008	0
148700	20.441813	4
148900	20.496692	5
149100	20.551644	2
149300	20.606669	5
149500	20.661769	1
149700	20.716942	2
149900	20.772188	0
150100	20.827508	2
150300	20.882902	2
150500	20.938369	2
150700	20.993909	10
150900	21.049524	19
151100	21.105211	3
151300	21.160973	3
151500	21.216808	2
151700	21.272716	3
151900	21.328698	1
152100	21.384754	5
152300	21.440883	3
152500	21.497086	3
152700	21.553362	2
152900	21.609712	2
153100	21.666136	4
153300	21.722633	5
153500	21.779203	3
153700	21.835847	3
153900	21.892565	2
154100	21.949356	10
154300	22.006221	8
154500	22.063160	15
154700	22.120172	2
154900	22.177257	1
155100	22.234416	1
155300	22.291649	2
155500	22.348955	2
155700	22.406335	0
155900	22.463789	0
156100	22.521316	0
156300	22.578916	1
156500	22.636590	0
156700	22.694338	0
156900	22.752159	2
157100	22.810054	18
157300	22.868022	16
157500	22.926064	165
157700	22.984179	4327472
157900	23.042369	11330
158100	23.100631	221
158300	23.158967	385
158500	23.217377	475
158700	23.275860	451
158900	23.334417	311
159100	23.393048	257
159300	23.451752	182
159500	23.510529	146
159700	23.569380	122
159900	23.628305	86
160100	23.687303	90
160300	23.746375	50
160500	23.805520	40
160700	23.864739	40
160900	23.924032	54
161100	23.983398	25571
161300	24.042838	375
161500	24.102351	34
161700	24.161938	29
161900	24.221598	19
162100	24.281332	16
162300	24.341139	18
162500	24.401020	15
162700	24.460975	13
162900	24.521003	4
163100	24.581105	6
163300	24.641280	10
163500	24.701529	6
163700	24.761852	4
163900	24.822248	2
164100	24.882717	7
164300	24.943260	21
164500	25.003877	6417
164700	25.064567	43
164900	25.125331	10
165100	25.186169	7
165300	25.247079	6
165500	25.308064	5
165700	25.369122	6
165900	25.430254	7
166100	25.491459	2
166300	25.552738	4
166500	25.614090	4
166700	25.675516	2
166900	25.737016	7
167100	25.798589	3
167300	25.860235	5
167500	25.921955	52
167700	25.983749	14722
167900	26.045616	9261
168100	26.107557	9
168300	26.169572	5
168500	26.231660	6
168700	26.293821	3
168900	26.356057	10
169100	26.418365	6
169300	26.480747	5
169500	26.543203	4
169700	26.605733	4
169900	26.668336	5
170100	26.731012	6
170300	26.793762	5
170500	26.856586	6
170700	26.919483	52
170900	26.982454	25311
171100	27.045498	164467
171300	27.108616	102
171500	27.171808	47
171700	27.235073	24
171900	27.298411	18
172100	27.361824	24
172300	27.425309	15
172500	27.488869	12
172700	27.552502	12
172900	27.616208	12
173100	27.679988	7
173300	27.743842	10
173500	27.807769	5
173700	27.871770	24
173900	27.935844	364
174100	27.999992	83572
174300	28.064213	5056
174500	28.128508	39
174700	28.192877	18
174900	28.257319	10
175100	28.321834	9
175300	28.386424	14
175500	28.451086	13
175700	28.515823	7
175900	28.580633	11
176100	28.645516	8
176300	28.710473	9
176500	28.775504	15
176700	28.840608	11
176900	28.905786	23
177100	28.971037	27530
177300	29.036362	170627
177500	29.101761	262
177700	29.167233	72
177900	29.232778	33
178100	29.298397	39
178300	29.364090	55
178500	29.429856	19
178700	29.495696	20
178900	29.561610	12
179100	29.627597	15
179300	29.693657	12
179500	29.759791	15
179700	29.825999	16
179900	29.892280	17
180100	29.958635	2286
180300	30.025063	15088
180500	30.091565	48
180700	30.158141	13
180900	30.224790	11
181100	30.291512	7
181300	30.358309	5
181500	30.425178	4
181700	30.492122	5
181900	30.559139	10
182100	30.626229	9
182300	30.693393	5
182500	30.760631	4
182700	30.827942	0
182900	30.895327	7
183100	30.962785	743
183300	31.030317	29611
183500	31.097922	42
183700	31.165601	27
183900	31.233354	88
184100	31.301180	26
184300	31.369080	11
184500	31.437053	8
184700	31.505100	21
184900	31.573220	25
185100	31.641414	7
185300	31.709681	2
185500	31.778023	3
185700	31.846437	3
185900	31.914925	1
186100	31.983487	169
186300	32.052122	606
186500	32.120831	3
186700	32.189614	5
186900	32.258470	8
187100	32.327399	10
187300	32.396403	4
187500	32.465479	5
187700	32.534630	3
187900	32.603854	3
188100	32.673151	1
188300	32.742522	1
188500	32.811967	1
188700	32.881485	1
188900	32.951076	8
189100	33.020742	330
189300	33.090480	3
189500	33.160293	3
189700	33.230179	2
189900	33.300138	6
190100	33.370171	7
190300	33.440278	17
190500	33.510458	5
190700	33.580712	3
190900	33.651039	4
191100	33.721440	5
191300	33.791915	2
191500	33.862463	5
191700	33.933084	2
191900	34.003780	182
192100	34.074548	11
192300	34.145391	1
192500	34.216306	4
192700	34.287296	2
192900	34.358359	4
193100	34.429495	3
193300	34.500706	4
193500	34.571989	2
193700	34.643347	4
193900	34.714777	1
194100	34.786282	1
194300	34.857860	3
194500	34.929511	16
194700	35.001236	412
194900	35.073035	26
195100	35.144907	6
195300	35.216853	2
195500	35.288872	3
195700	35.360965	4
195900	35.433132	2
196100	35.505372	2
196300	35.577685	2
196500	35.650073	5
196700	35.722533	3
196900	35.795068	4
197100	35.867676	6
197300	35.940357	29
197500	36.013112	508
197700	36.085941	7
197900	36.158843	6
198100	36.231818	5
198300	36.304868	2
198500	36.377990	3
198700	36.451187	6
198900	36.524457	0
199100	36.597800	2
199300	36.671217	2
199500	36.744708	7
199700	36.818272	2
199900	36.891910	38
200100	36.965621	824
200300	37.039406	3275
200500	37.113265	10
200700	37.187197	8
200900	37.261203	7
201100	37.335282	7
201300	37.409435	10
201500	37.483661	10
201700	37.557961	5
201900	37.632334	8
202100	37.706781	5
202300	37.781302	5
202500	37.855896	5
202700	37.930564	79
202900	38.005305	10905
203100	38.080120	30
203300	38.155008	10
203500	38.229970	13
203700	38.305006	9
203900	38.380115	8
204100	38.455297	5
204300	38.530554	8
204500	38.605883	7
204700	38.681287	20
204900	38.756764	24
205100	38.832314	91
205300	38.907938	4779
205500	38.983636	4501867
205700	39.059407	73
205900	39.135252	187
206100	39.211170	586
206300	39.287162	1073
206500	39.363228	1158
206700	39.439367	1127
