# Binning: 200 channels
# Deadtime Correction: on
Channel	m/z	Intensity
100	0.000243	0
300	0.000469	0
500	0.000768	0
700	0.001140	0
900	0.001586	0
1100	0.002105	0
1300	0.002697	0
1500	0.003363	0
1700	0.004103	0
1900	0.004915	0
2100	0.005801	0
2300	0.006761	0
2500	0.007794	0
2700	0.008900	0
2900	0.010079	0
3100	0.011332	0
3300	0.012658	0
3500	0.014058	0
3700	0.015531	0
3900	0.017078	0
4100	0.018698	0
4300	0.020391	0
4500	0.022157	0
4700	0.023997	0
4900	0.025911	0
5100	0.027897	0
5300	0.029957	0
5500	0.032091	0
5700	0.034298	0
5900	0.036578	0
6100	0.038932	1
6300	0.041359	0
6500	0.043859	0
6700	0.046433	0
6900	0.049080	0
7100	0.051801	0
7300	0.054595	0
7500	0.057462	1
7700	0.060403	0
7900	0.063417	0
8100	0.066504	0
8300	0.069665	0
8500	0.072899	0
8700	0.076207	0
8900	0.079588	0
9100	0.083042	0
9300	0.086570	0
9500	0.090171	0
9700	0.093845	0
9900	0.097593	0
10100	0.101414	0
10300	0.105309	0
10500	0.109277	0
10700	0.113318	0
10900	0.117433	0
11100	0.121621	0
11300	0.125883	0
11500	0.130218	0
11700	0.134626	0
11900	0.139108	0
12100	0.143663	0
12300	0.148291	0
12500	0.152993	0
12700	0.157768	0
12900	0.162617	0
13100	0.167539	0
13300	0.172534	0
13500	0.177603	0
13700	0.182745	0
13900	0.187960	0
14100	0.193249	0
14300	0.198611	0
14500	0.204047	0
14700	0.209556	0
14900	0.215138	0
15100	0.220794	0
15300	0.226523	0
15500	0.232326	0
15700	0.238202	0
15900	0.244151	0
16100	0.250174	1
16300	0.256270	0
16500	0.262439	0
16700	0.268682	0
16900	0.274998	0
17100	0.281388	0
17300	0.287851	0
17500	0.294387	0
17700	0.300997	0
17900	0.307680	0
18100	0.314436	0
18300	0.321266	0
18500	0.328169	0
18700	0.335146	0
18900	0.342196	0
19100	0.349319	0
19300	0.356516	0
19500	0.363786	0
19700	0.371130	0
19900	0.378546	0
20100	0.386037	0
20300	0.393600	0
20500	0.401237	0
20700	0.408948	0
20900	0.416732	0
21100	0.424589	0
21300	0.432519	0
21500	0.440523	0
21700	0.448601	0
21900	0.456751	0
22100	0.464975	0
22300	0.473273	0
22500	0.481644	0
22700	0.490088	0
22900	0.498605	0
23100	0.507196	0
23300	0.515861	0
23500	0.524598	0
23700	0.533410	0
23900	0.542294	0
24100	0.551252	0
24300	0.560283	0
24500	0.569388	0
24700	0.578566	0
24900	0.587817	0
25100	0.597142	0
25300	0.606540	0
25500	0.616012	0
25700	0.625557	0
25900	0.635175	0
26100	0.644867	0
26300	0.654632	0
26500	0.664470	0
26700	0.674382	0
26900	0.684367	0
27100	0.694426	0
27300	0.704558	0
27500	0.714763	0
27700	0.725042	0
27900	0.735394	0
28100	0.745819	0
28300	0.756318	0
28500	0.766890	0
28700	0.777536	0
28900	0.788255	0
29100	0.799048	0
29300	0.809913	0
29500	0.820852	0
29700	0.831865	0
29900	0.842951	0
30100	0.854110	0
30300	0.865343	0
30500	0.876649	0
30700	0.888028	0
30900	0.899481	0
31100	0.911007	0
31300	0.922607	0
31500	0.934280	0
31700	0.946026	0
31900	0.957846	0
32100	0.969739	0
32300	0.981705	0
32500	0.993745	0
32700	1.005859	4323
32900	1.018045	2
33100	1.030305	0
33300	1.042639	0
33500	1.055045	0
33700	1.067525	1
33900	1.080079	0
34100	1.092706	0
34300	1.105406	0
34500	1.118180	0
34700	1.131027	0
34900	1.143947	0
35100	1.156941	0
35300	1.170008	0
35500	1.183149	0
35700	1.196363	0
35900	1.209650	0
36100	1.223011	0
36300	1.236445	0
36500	1.249952	0
36700	1.263533	0
36900	1.277187	0
37100	1.290915	0
37300	1.304716	0
37500	1.318590	0
37700	1.332538	0
37900	1.346559	0
38100	1.360654	0
38300	1.374822	0
38500	1.389063	0
38700	1.403378	0
38900	1.417766	0
39100	1.432227	0
39300	1.446762	0
39500	1.461370	0
39700	1.476052	0
39900	1.490806	0
40100	1.505635	0
40300	1.520536	0
40500	1.535512	0
40700	1.550560	0
40900	1.565682	0
41100	1.580877	0
41300	1.596146	0
41500	1.611488	0
41700	1.626903	0
41900	1.642392	0
42100	1.657954	0
42300	1.673589	0
42500	1.689298	0
42700	1.705080	0
42900	1.720936	0
43100	1.736865	0
43300	1.752868	0
43500	1.768943	0
43700	1.785092	0
43900	1.801315	0
44100	1.817611	0
44300	1.833980	0
44500	1.850423	0
44700	1.866939	0
44900	1.883528	0
45100	1.900191	0
45300	1.916927	0
45500	1.933737	0
45700	1.950620	0
45900	1.967576	0
46100	1.984606	0
46300	2.001709	0
46500	2.018886	159
46700	2.036136	0
46900	2.053459	0
47100	2.070855	0
47300	2.088325	0
47500	2.105869	0
47700	2.123486	0
47900	2.141176	0
48100	2.158939	0
48300	2.176776	0
48500	2.194687	0
48700	2.212670	0
48900	2.230727	0
49100	2.248858	0
49300	2.267062	0
49500	2.285339	0
49700	2.303689	0
49900	2.322113	0
50100	2.340611	0
50300	2.359181	0
50500	2.377825	0
50700	2.396543	0
50900	2.415334	0
51100	2.434198	0
51300	2.453136	0
51500	2.472147	0
51700	2.491231	0
51900	2.510389	0
52100	2.529620	0
52300	2.548924	0
52500	2.568302	0
52700	2.587754	0
52900	2.607278	0
53100	2.626876	0
53300	2.646548	0
53500	2.666293	0
53700	2.686111	0
53900	2.706002	0
54100	2.725967	0
54300	2.746006	0
54500	2.766117	0
54700	2.786302	0
54900	2.806561	0
55100	2.826893	0
55300	2.847298	0
55500	2.867776	0
55700	2.888328	0
55900	2.908954	0
56100	2.929653	0
56300	2.950425	0
56500	2.971270	0
56700	2.992189	0
56900	3.013181	13
57100	3.034247	2
57300	3.055386	0
57500	3.076598	0
57700	3.097884	0
57900	3.119243	0
58100	3.140676	0
58300	3.162182	0
58500	3.183761	0
58700	3.205414	0
58900	3.227140	0
59100	3.248940	0
59300	3.270812	0
59500	3.292759	0
59700	3.314778	0
59900	3.336871	0
60100	3.359037	0
60300	3.381277	0
60500	3.403590	0
60700	3.425977	0
60900	3.448437	0
61100	3.470970	0
61300	3.493577	0
61500	3.516257	0
61700	3.539010	0
61900	3.561837	0
62100	3.584737	0
62300	3.607711	0
62500	3.630757	0
62700	3.653878	0
62900	3.677071	0
63100	3.700339	0
63300	3.723679	0
63500	3.747093	0
63700	3.770580	0
63900	3.794141	0
64100	3.817775	0
64300	3.841482	0
64500	3.865263	0
64700	3.889117	0
64900	3.913044	0
65100	3.937045	0
65300	3.961119	0
65500	3.985267	0
65700	4.009488	0
65900	4.033782	0
66100	4.058150	0
66300	4.082591	0
66500	4.107106	0
66700	4.131694	0
66900	4.156355	0
67100	4.181090	0
67300	4.205898	0
67500	4.230779	0
67700	4.255734	0
67900	4.280762	0
68100	4.305864	0
68300	4.331039	0
68500	4.356287	0
68700	4.381609	0
68900	4.407004	0
69100	4.432472	0
69300	4.458014	0
69500	4.483630	0
69700	4.509318	0
69900	4.535080	0
70100	4.560916	0
70300	4.586824	0
70500	4.612806	0
70700	4.638862	0
70900	4.664991	0
71100	4.691193	0
71300	4.717469	0
71500	4.743818	0
71700	4.770240	0
71900	4.796736	0
72100	4.823305	0
72300	4.849948	0
72500	4.876664	0
72700	4.903453	0
72900	4.930316	0
73100	4.957252	0
73300	4.984261	0
73500	5.011344	0
73700	5.038501	0
73900	5.065730	0
74100	5.093033	0
74300	5.120409	0
74500	5.147859	0
74700	5.175382	0
74900	5.202979	0
75100	5.230649	0
75300	5.258392	0
75500	5.286209	0
75700	5.314099	0
75900	5.342062	0
76100	5.370099	0
76300	5.398209	0
76500	5.426393	0
76700	5.454650	0
76900	5.482980	0
77100	5.511384	0
77300	5.539861	0
77500	5.568411	0
77700	5.597035	0
77900	5.625732	0
78100	5.654503	0
78300	5.683347	0
78500	5.712264	0
78700	5.741255	0
78900	5.770319	0
79100	5.799457	0
79300	5.828667	0
79500	5.857952	0
79700	5.887309	0
79900	5.916740	0
80100	5.946245	0
80300	5.975823	0
80500	6.005474	15
80700	6.035198	1
80900	6.064996	0
81100	6.094868	0
81300	6.124812	0
81500	6.154830	0
81700	6.184922	0
81900	6.215087	0
82100	6.245325	0
82300	6.275636	0
82500	6.306021	0
82700	6.336480	0
82900	6.367011	0
83100	6.397617	0
83300	6.428295	0
83500	6.459047	0
83700	6.489872	0
83900	6.520771	0
84100	6.551743	0
84300	6.582788	0
84500	6.613907	0
84700	6.645099	0
84900	6.676365	0
85100	6.707704	0
85300	6.739116	0
85500	6.770602	0
85700	6.802161	0
85900	6.833793	0
86100	6.865499	0
86300	6.897278	0
86500	6.929131	0
86700	6.961057	0
86900	6.993056	0
87100	7.025129	151
87300	7.057275	0
87500	7.089494	0
87700	7.121787	0
87900	7.154153	0
88100	7.186593	0
88300	7.219106	0
88500	7.251692	0
88700	7.284352	0
88900	7.317085	0
89100	7.349892	0
89300	7.382772	0
89500	7.415725	0
89700	7.448752	0
89900	7.481852	0
90100	7.515025	0
90300	7.548272	0
90500	7.581592	0
90700	7.614986	0
90900	7.648453	0
91100	7.681993	0
91300	7.715607	0
91500	7.749294	0
91700	7.783054	0
91900	7.816888	0
92100	7.850795	0
92300	7.884776	0
92500	7.918830	0
92700	7.952957	0
92900	7.987158	0
93100	8.021432	0
93300	8.055780	0
93500	8.090201	0
93700	8.124695	0
93900	8.159263	0
94100	8.193904	0
94300	8.228618	0
94500	8.263406	0
94700	8.298267	0
94900	8.333202	0
95100	8.368210	0
95300	8.403291	0
95500	8.438446	0
95700	8.473674	0
95900	8.508975	0
96100	8.544350	0
96300	8.579798	0
96500	8.615320	0
96700	8.650915	0
96900	8.686583	0
97100	8.722325	0
97300	8.758140	0
97500	8.794028	0
97700	8.829990	0
97900	8.866026	0
98100	8.902134	0
98300	8.938316	0
98500	8.974572	0
98700	9.010901	0
98900	9.047303	0
99100	9.083778	0
99300	9.120327	0
99500	9.156949	0
99700	9.193645	0
99900	9.230414	0
100100	9.267257	0
100300	9.304173	0
100500	9.341162	0
100700	9.378224	0
100900	9.415360	0
101100	9.452570	0
101300	9.489852	0
101500	9.527209	0
101700	9.564638	0
101900	9.602141	0
102100	9.639717	0
102300	9.677367	0
102500	9.715090	0
102700	9.752886	0
102900	9.790756	0
103100	9.828699	0
103300	9.866716	0
103500	9.904806	0
103700	9.942969	0
103900	9.981206	0
104100	10.019516	5
104300	10.057899	0
104500	10.096356	0
104700	10.134886	0
104900	10.173490	0
105100	10.212167	0
105300	10.250917	0
105500	10.289741	0
105700	10.328638	0
105900	10.367608	0
106100	10.406652	0
106300	10.445769	0
106500	10.484960	0
106700	10.524224	0
106900	10.563561	0
107100	10.602972	0
107300	10.642456	0
107500	10.682014	0
107700	10.721645	0
107900	10.761349	0
108100	10.801127	0
108300	10.840978	0
108500	10.880902	0
108700	10.920900	0
108900	10.960971	0
109100	11.001116	9
109300	11.041334	0
109500	11.081625	0
109700	11.121990	0
109900	11.162428	0
110100	11.202939	0
110300	11.243524	0
110500	11.284182	0
110700	11.324914	0
110900	11.365719	0
111100	11.406597	0
111300	11.447549	0
111500	11.488574	0
111700	11.529673	0
111900	11.570845	0
112100	11.612090	0
112300	11.653409	0
112500	11.694801	0
112700	11.736266	0
112900	11.777805	0
113100	11.819417	0
113300	11.861103	1
113500	11.902862	0
113700	11.944694	1
113900	11.986600	3097
114100	12.028579	1
114300	12.070631	0
114500	12.112757	0
114700	12.154956	0
114900	12.197229	0
115100	12.239575	0
115300	12.281994	0
115500	12.324487	0
115700	12.367053	0
115900	12.409693	1
116100	12.452406	0
116300	12.495192	0
116500	12.538051	0
116700	12.580984	0
116900	12.623991	0
117100	12.667071	0
117300	12.710224	0
117500	12.753450	0
117700	12.796750	0
117900	12.840124	0
118100	12.883570	0
118300	12.927090	0
118500	12.970684	3
118700	13.014351	1700
118900	13.058091	0
119100	13.101905	0
119300	13.145791	0
119500	13.189752	0
119700	13.233786	0
119900	13.277893	1
120100	13.322073	0
120300	13.366327	0
120500	13.410654	0
120700	13.455055	0
120900	13.499529	0
121100	13.544076	0
121300	13.588697	0
121500	13.633391	0
121700	13.678159	0
121900	13.723000	0
122100	13.767914	0
122300	13.812902	0
122500	13.857963	0
122700	13.903097	0
122900	13.948305	0
123100	13.993586	1622
123300	14.038941	300
123500	14.084369	0
123700	14.129870	0
123900	14.175445	0
124100	14.221093	0
124300	14.266815	0
124500	14.312609	0
124700	14.358478	0
124900	14.404419	1
125100	14.450434	0
125300	14.496523	0
125500	14.542684	0
125700	14.588920	0
125900	14.635228	0
126100	14.681610	1
126300	14.728065	0
126500	14.774594	0
126700	14.821196	0
126900	14.867871	0
127100	14.914620	0
127300	14.961442	1
127500	15.008338	5017
127700	15.055307	21
127900	15.102349	2
128100	15.149465	0
128300	15.196654	0
128500	15.243917	0
128700	15.291253	0
128900	15.338662	1
129100	15.386144	0
129300	15.433700	0
129500	15.481330	0
129700	15.529033	0
129900	15.576809	1
130100	15.624658	0
130300	15.672581	0
130500	15.720577	0
130700	15.768647	0
130900	15.816790	0
131100	15.865006	0
131300	15.913296	0
131500	15.961659	1
131700	16.010096	190
131900	16.058606	0
132100	16.107189	0
132300	16.155846	0
132500	16.204576	0
132700	16.253380	0
132900	16.302256	1
133100	16.351207	0
133300	16.400230	0
133500	16.449327	0
133700	16.498498	0
133900	16.547741	0
134100	16.597058	0
134300	16.646449	0
134500	16.695913	0
134700	16.745450	0
134900	16.795061	0
135100	16.844745	0
135300	16.894502	0
135500	16.944333	0
135700	16.994237	79
135900	17.044215	85
136100	17.094266	0
136300	17.144390	0
136500	17.194588	0
136700	17.244859	0
136900	17.295203	0
137100	17.345621	0
137300	17.396112	0
137500	17.446677	0
137700	17.497315	0
137900	17.548026	0
138100	17.598811	0
138300	17.649669	0
138500	17.700601	0
138700	17.751605	0
138900	17.802684	0
139100	17.853835	0
139300	17.905060	0
139500	17.956359	0
139700	18.007731	551
139900	18.059176	956
140100	18.110694	3
140300	18.162286	0
140500	18.213952	0
140700	18.265690	0
140900	18.317502	0
141100	18.369388	0
141300	18.421347	0
141500	18.473379	0
141700	18.525484	0
141900	18.577663	0
142100	18.629916	1
142300	18.682241	0
142500	18.734640	0
142700	18.787113	0
142900	18.839659	0
143100	18.892278	0
143300	18.944971	0
143500	18.997737	285
143700	19.050576	26
143900	19.103489	0
144100	19.156475	0
144300	19.209535	1
144500	19.262668	0
144700	19.315874	0
144900	19.369153	0
145100	19.422507	0
145300	19.475933	0
145500	19.529433	0
145700	19.583006	0
145900	19.636653	0
146100	19.690373	0
146300	19.744166	1
146500	19.798033	0
146700	19.851973	0
146900	19.905986	0
147100	19.960073	5
147300	20.014233	0
147500	20.068467	0
147700	20.122774	0
147900	20.177154	0
148100	20.231608	0
148300	20.286135	0
148500	20.340736	0
148700	20.395410	0
148900	20.450157	0
149100	20.504978	0
149300	20.559872	0
149500	20.614839	0
149700	20.669880	0
149900	20.724994	0
150100	20.780182	0
150300	20.835443	0
150500	20.890777	0
150700	20.946185	0
150900	21.001666	2
151100	21.057220	0
151300	21.112848	0
151500	21.168549	0
151700	21.224324	0
151900	21.280172	0
152100	21.336093	1
152300	21.392088	0
152500	21.448156	0
152700	21.504298	1
152900	21.560512	1
153100	21.616801	0
153300	21.673162	0
153500	21.729597	0
153700	21.786106	0
153900	21.842688	0
154100	21.899343	0
154300	21.956071	1
154500	22.012873	0
154700	22.069749	1
154900	22.126697	1
155100	22.183719	0
155300	22.240815	0
155500	22.297984	0
155700	22.355226	3
155900	22.412541	1
156100	22.469930	0
156300	22.527393	0
156500	22.584929	0
156700	22.642538	0
156900	22.700220	0
157100	22.757976	0
157300	22.815805	0
157500	22.873708	31
157700	22.931684	43
157900	22.989733	672148
158100	23.047856	4452
158300	23.106052	883
158500	23.164322	460
158700	23.222665	263
158900	23.281081	183
159100	23.339571	150
159300	23.398134	95
159500	23.456770	86
159700	23.515480	55
159900	23.574263	61
160100	23.633120	32
160300	23.692050	37
160500	23.751053	20
160700	23.810130	16
160900	23.869280	15
161100	23.928504	13
161300	23.987801	629
161500	24.047171	20
161700	24.106614	16
161900	24.166131	11
162100	24.225722	8
162300	24.285386	5
162500	24.345123	10
162700	24.404933	10
162900	24.464817	9
163100	24.524774	8
163300	24.584805	4
163500	24.644909	9
163700	24.705087	3
163900	24.765337	3
164100	24.825662	2
164300	24.886059	2
164500	24.946530	11
164700	25.007075	768
164900	25.067692	3
165100	25.128383	5
165300	25.189148	0
165500	25.249986	3
165700	25.310897	0
165900	25.371882	3
166100	25.432940	2
166300	25.494071	0
166500	25.555276	1
166700	25.616554	0
166900	25.677905	2
167100	25.739330	1
167300	25.800829	0
167500	25.862400	3
167700	25.924045	7
167900	25.985764	2575
168100	26.047556	553
168300	26.109421	2
168500	26.171359	0
168700	26.233371	0
168900	26.295457	0
169100	26.357615	2
169300	26.419847	1
169500	26.482153	0
169700	26.544532	1
169900	26.606984	1
170100	26.669510	1
170300	26.732109	3
170500	26.794781	1
170700	26.857527	0
170900	26.920346	9
171100	26.983238	1392
171300	27.046204	14837
171500	27.109243	7
171700	27.172356	8
171900	27.235542	0
172100	27.298802	3
172300	27.362134	3
172500	27.425541	1
172700	27.489020	2
172900	27.552573	1
173100	27.616199	0
173300	27.679899	0
173500	27.743672	1
173700	27.807519	1
173900	27.871438	1
174100	27.935432	16
174300	27.999498	3921
174500	28.063638	718
174700	28.127852	3
174900	28.192138	3
175100	28.256499	1
175300	28.320932	0
175500	28.385439	0
175700	28.450019	0
175900	28.514673	0
176100	28.579400	1
176300	28.644200	0
176500	28.709074	0
176700	28.774021	1
176900	28.839042	1
177100	28.904136	5
177300	28.969303	1950
177500	29.034544	15049
177700	29.099858	32
177900	29.165245	4
178100	29.230706	3
178300	29.296240	6
178500	29.361848	4
178700	29.427529	1
178900	29.493283	1
179100	29.559111	2
179300	29.625012	3
179500	29.690986	2
179700	29.757034	1
179900	29.823156	0
180100	29.889350	0
180300	29.955618	39
180500	30.021960	2859
180700	30.088374	13
180900	30.154863	0
181100	30.221424	1
181300	30.288059	0
181500	30.354767	0
181700	30.421549	2
181900	30.488404	0
182100	30.555333	2
182300	30.622334	4
182500	30.689410	2
182700	30.756558	1
182900	30.823780	0
183100	30.891075	3
183300	30.958444	45
183500	31.025886	2467
183700	31.093402	4
183900	31.160991	2
184100	31.228653	12
184300	31.296388	1
184500	31.364198	1
184700	31.432080	0
184900	31.500036	0
185100	31.568065	1
185300	31.636167	1
185500	31.704343	3
185700	31.772593	0
185900	31.840915	0
186100	31.909311	0
186300	31.977781	25
186500	32.046323	132
186700	32.114940	0
186900	32.183629	0
187100	32.252392	0
187300	32.321229	0
187500	32.390138	0
187700	32.459121	0
187900	32.528178	0
188100	32.597308	0
188300	32.666511	0
188500	32.735788	0
188700	32.805138	0
188900	32.874561	0
189100	32.944058	3
189300	33.013628	34
189500	33.083271	1
189700	33.152988	0
189900	33.222778	0
190100	33.292642	0
190300	33.362579	4
190500	33.432590	0
190700	33.502673	1
190900	33.572831	0
191100	33.643061	1
191300	33.713365	0
191500	33.783742	0
191700	33.854193	0
191900	33.924717	0
192100	33.995315	3
192300	34.065985	2
192500	34.136730	0
192700	34.207547	0
192900	34.278438	0
193100	34.349403	0
193300	34.420440	0
193500	34.491552	0
193700	34.562736	0
193900	34.633994	0
194100	34.705325	0
194300	34.776730	0
194500	34.848208	1
194700	34.919759	0
194900	34.991384	76
195100	35.063082	0
195300	35.134854	0
195500	35.206699	0
195700	35.278617	0
195900	35.350609	0
196100	35.422674	0
196300	35.494812	1
196500	35.567024	0
196700	35.639309	0
196900	35.711668	1
197100	35.784100	0
197300	35.856605	0
197500	35.929184	5
197700	36.001836	305
197900	36.074562	1
198100	36.147360	0
198300	36.220233	3
198500	36.293178	0
198700	36.366197	1
198900	36.439290	1
199100	36.512456	0
199300	36.585695	0
199500	36.659007	0
199700	36.732393	0
199900	36.805852	0
200100	36.879385	6
200300	36.952991	146
200500	37.026671	1547
200700	37.100423	2
200900	37.174250	3
201100	37.248149	0
201300	37.322122	3
201500	37.396169	1
201700	37.470288	0
201900	37.544481	0
202100	37.618748	0
202300	37.693088	1
202500	37.767501	2
202700	37.841988	0
202900	37.916548	7
203100	37.991181	2475
203300	38.065888	14
203500	38.140668	0
203700	38.215521	1
203900	38.290448	1
204100	38.365449	2
204300	38.440522	0
204500	38.515669	1
204700	38.590890	0
204900	38.666184	0
205100	38.741551	1
205300	38.816991	5
205500	38.892505	70
205700	38.968093	56223
205900	39.043753	13340
206100	39.119488	344
206300	39.195295	188
206500	39.271176	137
206700	39.347130	93
206900	39.423158	84
207100	39.499259	77
207300	39.575433	80
207500	39.651681	67
207700	39.728002	38
207900	39.804396	42
208100	39.880864	39
208300	39.957406	8246
