# Binning: 200 channels
# Deadtime Correction: on
Channel	m/z	Intensity
100	0.000240	0
300	0.000462	0
500	0.000756	0
700	0.001122	0
900	0.001560	0
1100	0.002070	0
1300	0.002652	0
1500	0.003306	0
1700	0.004032	0
1900	0.004831	0
2100	0.005701	0
2300	0.006643	0
2500	0.007658	0
2700	0.008744	0
2900	0.009903	0
3100	0.011133	0
3300	0.012436	0
3500	0.013810	0
3700	0.015257	0
3900	0.016776	0
4100	0.018367	0
4300	0.020029	0
4500	0.021764	0
4700	0.023571	0
4900	0.025450	0
5100	0.027401	0
5300	0.029424	0
5500	0.031519	0
5700	0.033686	0
5900	0.035925	0
6100	0.038237	0
6300	0.040620	0
6500	0.043075	0
6700	0.045603	0
6900	0.048202	0
7100	0.050873	0
7300	0.053617	0
7500	0.056432	0
7700	0.059320	0
7900	0.062280	0
8100	0.065311	0
8300	0.068415	0
8500	0.071591	0
8700	0.074839	0
8900	0.078159	0
9100	0.081550	0
9300	0.085014	0
9500	0.088550	0
9700	0.092158	0
9900	0.095838	0
10100	0.099591	0
10300	0.103415	0
10500	0.107311	0
10700	0.111279	0
10900	0.115320	0
11100	0.119432	0
11300	0.123616	0
11500	0.127873	0
11700	0.132201	0
11900	0.136602	0
12100	0.141074	0
12300	0.145619	0
12500	0.150236	0
12700	0.154924	0
12900	0.159685	0
13100	0.164518	0
13300	0.169423	0
13500	0.174400	0
13700	0.179449	0
13900	0.184570	0
14100	0.189763	0
14300	0.195028	0
14500	0.200365	0
14700	0.205774	0
14900	0.211255	0
15100	0.216808	0
15300	0.222434	0
15500	0.228131	0
15700	0.233900	0
15900	0.239742	0
16100	0.245655	0
16300	0.251641	0
16500	0.257698	0
16700	0.263828	0
16900	0.270030	0
17100	0.276303	0
17300	0.282649	0
17500	0.289067	0
17700	0.295557	0
17900	0.302119	0
18100	0.308753	0
18300	0.315459	0
18500	0.322237	0
18700	0.329087	0
18900	0.336009	0
19100	0.343003	0
19300	0.350069	0
19500	0.357207	0
19700	0.364418	0
19900	0.371700	0
20100	0.379054	0
20300	0.386481	0
20500	0.393979	0
20700	0.401550	0
20900	0.409192	0
21100	0.416907	0
21300	0.424694	0
21500	0.432552	0
21700	0.440483	0
21900	0.448486	0
22100	0.456561	0
22300	0.464708	0
22500	0.472927	0
22700	0.481218	0
22900	0.489581	0
23100	0.498016	0
23300	0.506523	0
23500	0.515102	0
23700	0.523753	0
23900	0.532476	0
24100	0.541272	0
24300	0.550139	0
24500	0.559078	0
24700	0.568090	0
24900	0.577173	0
25100	0.586329	0
25300	0.595556	0
25500	0.604856	0
25700	0.614228	0
25900	0.623671	0
26100	0.633187	0
26300	0.642775	0
26500	0.652435	0
26700	0.662167	0
26900	0.671971	0
27100	0.681847	0
27300	0.691795	0
27500	0.701815	0
27700	0.711907	0
27900	0.722071	0
28100	0.732307	0
28300	0.742615	0
28500	0.752996	0
28700	0.763448	0
28900	0.773972	0
29100	0.784569	0
29300	0.795237	0
29500	0.805978	0
29700	0.816790	0
29900	0.827675	0
30100	0.838632	0
30300	0.849660	0
30500	0.860761	0
30700	0.871934	0
30900	0.883179	0
31100	0.894495	0
31300	0.905884	0
31500	0.917345	0
31700	0.928878	0
31900	0.940483	0
32100	0.952161	0
32300	0.963910	0
32500	0.975731	0
32700	0.987624	0
32900	0.999589	1
33100	1.011627	4970
33300	1.023736	0
33500	1.035918	0
33700	1.048171	0
33900	1.060497	0
34100	1.072894	0
34300	1.085364	0
34500	1.097905	0
34700	1.110519	0
34900	1.123205	0
35100	1.135963	0
35300	1.148792	0
35500	1.161694	0
35700	1.174668	0
35900	1.187714	0
36100	1.200832	0
36300	1.214022	0
36500	1.227284	0
36700	1.240618	0
36900	1.254025	0
37100	1.267503	0
37300	1.281053	0
37500	1.294675	0
37700	1.308370	0
37900	1.322136	0
38100	1.335975	0
38300	1.349885	0
38500	1.363868	0
38700	1.377922	0
38900	1.392049	0
39100	1.406248	0
39300	1.420518	0
39500	1.434861	0
39700	1.449276	0
39900	1.463763	0
40100	1.478322	0
40300	1.492953	0
40500	1.507656	0
40700	1.522431	0
40900	1.537278	0
41100	1.552197	0
41300	1.567188	0
41500	1.582251	0
41700	1.597387	0
41900	1.612594	0
42100	1.627873	0
42300	1.643225	0
42500	1.658648	0
42700	1.674144	0
42900	1.689711	0
43100	1.705351	0
43300	1.721063	0
43500	1.736846	0
43700	1.752702	0
43900	1.768630	1
44100	1.784630	0
44300	1.800701	0
44500	1.816845	0
44700	1.833061	0
44900	1.849349	0
45100	1.865709	0
45300	1.882141	0
45500	1.898646	0
45700	1.915222	0
45900	1.931870	0
46100	1.948590	0
46300	1.965383	0
46500	1.982247	0
46700	1.999183	0
46900	2.016192	195
47100	2.033272	0
47300	2.050425	0
47500	2.067649	0
47700	2.084946	0
47900	2.102315	0
48100	2.119755	0
48300	2.137268	0
48500	2.154853	0
48700	2.172510	0
48900	2.190239	0
49100	2.208040	0
49300	2.225913	0
49500	2.243858	0
49700	2.261875	0
49900	2.279964	0
50100	2.298125	0
50300	2.316358	0
50500	2.334664	0
50700	2.353041	0
50900	2.371490	0
51100	2.390012	0
51300	2.408605	0
51500	2.427271	0
51700	2.446008	0
51900	2.464818	0
52100	2.483699	0
52300	2.502653	0
52500	2.521679	0
52700	2.540777	0
52900	2.559946	0
53100	2.579188	0
53300	2.598502	0
53500	2.617888	0
53700	2.637346	0
53900	2.656876	0
54100	2.676478	0
54300	2.696152	0
54500	2.715898	0
54700	2.735717	0
54900	2.755607	0
55100	2.775569	0
55300	2.795604	0
55500	2.815710	0
55700	2.835888	0
55900	2.856139	0
56100	2.876461	0
56300	2.896856	0
56500	2.917323	0
56700	2.937861	0
56900	2.958472	0
57100	2.979155	0
57300	2.999910	0
57500	3.020736	29
57700	3.041635	0
57900	3.062606	0
58100	3.083649	0
58300	3.104764	0
58500	3.125951	0
58700	3.147211	0
58900	3.168542	0
59100	3.189945	0
59300	3.211420	0
59500	3.232967	0
59700	3.254587	0
59900	3.276278	0
60100	3.298042	0
60300	3.319877	0
60500	3.341785	0
60700	3.363764	0
60900	3.385816	0
61100	3.407940	0
61300	3.430135	0
61500	3.452403	0
61700	3.474743	0
61900	3.497155	0
62100	3.519639	0
62300	3.542194	0
62500	3.564822	0
62700	3.587522	0
62900	3.610295	0
63100	3.633139	0
63300	3.656055	0
63500	3.679043	0
63700	3.702103	0
63900	3.725236	0
64100	3.748440	0
64300	3.771716	0
64500	3.795065	0
64700	3.818485	0
64900	3.841978	0
65100	3.865542	0
65300	3.889179	0
65500	3.912888	0
65700	3.936668	0
65900	3.960521	0
66100	3.984446	0
66300	4.008443	0
66500	4.032512	0
66700	4.056653	0
66900	4.080866	0
67100	4.105151	0
67300	4.129508	0
67500	4.153937	0
67700	4.178438	0
67900	4.203011	0
68100	4.227656	0
68300	4.252374	0
68500	4.277163	0
68700	4.302024	0
68900	4.326958	0
69100	4.351963	0
69300	4.377041	0
69500	4.402190	0
69700	4.427412	0
69900	4.452706	0
70100	4.478071	0
70300	4.503509	0
70500	4.529019	0
70700	4.554601	0
70900	4.580255	0
71100	4.605981	0
71300	4.631778	0
71500	4.657649	0
71700	4.683591	0
71900	4.709605	0
72100	4.735691	0
72300	4.761849	0
72500	4.788079	0
72700	4.814382	0
72900	4.840756	0
73100	4.867202	0
73300	4.893721	0
73500	4.920311	0
73700	4.946974	0
73900	4.973708	0
74100	5.000515	0
74300	5.027394	0
74500	5.054344	0
74700	5.081367	0
74900	5.108462	0
75100	5.135629	0
75300	5.162867	0
75500	5.190178	0
75700	5.217561	0
75900	5.245016	0
76100	5.272543	0
76300	5.300143	0
76500	5.327814	0
76700	5.355557	0
76900	5.383372	0
77100	5.411259	0
77300	5.439219	0
77500	5.467250	0
77700	5.495354	0
77900	5.523529	0
78100	5.551777	0
78300	5.580096	0
78500	5.608488	0
78700	5.636951	0
78900	5.665487	0
79100	5.694095	0
79300	5.722775	0
79500	5.751526	0
79700	5.780350	0
79900	5.809246	0
80100	5.838214	0
80300	5.867254	0
80500	5.896366	0
80700	5.925550	0
80900	5.954806	0
81100	5.984135	0
81300	6.013535	39
81500	6.043007	2
81700	6.072551	0
81900	6.102168	0
82100	6.131856	0
82300	6.161617	0
82500	6.191449	0
82700	6.221354	0
82900	6.251330	0
83100	6.281379	0
83300	6.311500	0
83500	6.341692	0
83700	6.371957	0
83900	6.402294	0
84100	6.432703	0
84300	6.463184	0
84500	6.493737	0
84700	6.524362	0
84900	6.555059	0
85100	6.585828	0
85300	6.616669	0
85500	6.647582	0
85700	6.678568	0
85900	6.709625	0
86100	6.740754	0
86300	6.771955	0
86500	6.803229	0
86700	6.834574	0
86900	6.865992	0
87100	6.897481	0
87300	6.929043	0
87500	6.960677	0
87700	6.992382	0
87900	7.024160	585
88100	7.056010	5
88300	7.087932	1
88500	7.119926	0
88700	7.151991	0
88900	7.184129	0
89100	7.216339	0
89300	7.248621	0
89500	7.280976	0
89700	7.313402	0
89900	7.345900	0
90100	7.378470	0
90300	7.411112	0
90500	7.443827	0
90700	7.476613	0
90900	7.509471	0
91100	7.542402	0
91300	7.575404	0
91500	7.608479	0
91700	7.641626	0
91900	7.674844	0
92100	7.708135	0
92300	7.741498	0
92500	7.774932	0
92700	7.808439	0
92900	7.842018	0
93100	7.875669	0
93300	7.909392	0
93500	7.943187	0
93700	7.977054	0
93900	8.010993	0
94100	8.045004	0
94300	8.079087	0
94500	8.113243	0
94700	8.147470	0
94900	8.181769	0
95100	8.216140	0
95300	8.250584	0
95500	8.285099	0
95700	8.319687	1
95900	8.354346	0
96100	8.389078	0
96300	8.423882	0
96500	8.458757	0
96700	8.493705	0
96900	8.528725	0
97100	8.563817	0
97300	8.598980	0
97500	8.634216	0
97700	8.669524	0
97900	8.704904	1
98100	8.740356	0
98300	8.775880	0
98500	8.811477	0
98700	8.847145	0
98900	8.882885	0
99100	8.918697	0
99300	8.954581	0
99500	8.990538	0
99700	9.026566	0
99900	9.062667	0
100100	9.098839	0
100300	9.135084	0
100500	9.171400	0
100700	9.207789	0
100900	9.244250	0
101100	9.280782	0
101300	9.317387	0
101500	9.354064	0
101700	9.390813	0
101900	9.427634	0
102100	9.464527	0
102300	9.501492	0
102500	9.538529	0
102700	9.575638	0
102900	9.612819	0
103100	9.650072	0
103300	9.687397	0
103500	9.724794	0
103700	9.762264	0
103900	9.799805	0
104100	9.837419	0
104300	9.875104	0
104500	9.912861	0
104700	9.950691	0
104900	9.988593	0
105100	10.026566	17
105300	10.064612	0
105500	10.102730	0
105700	10.140919	0
105900	10.179181	0
106100	10.217515	0
106300	10.255921	0
106500	10.294399	0
106700	10.332949	0
106900	10.371571	0
107100	10.410265	0
107300	10.449031	0
107500	10.487869	0
107700	10.526779	0
107900	10.565762	0
108100	10.604816	0
108300	10.643942	0
108500	10.683141	0
108700	10.722411	0
108900	10.761754	0
109100	10.801168	0
109300	10.840655	0
109500	10.880213	0
109700	10.919844	0
109900	10.959547	0
110100	10.999321	38
110300	11.039168	0
110500	11.079087	0
110700	11.119078	0
110900	11.159141	0
111100	11.199276	0
111300	11.239483	0
111500	11.279762	0
111700	11.320113	0
111900	11.360536	0
112100	11.401031	0
112300	11.441599	0
112500	11.482238	0
112700	11.522949	0
112900	11.563733	0
113100	11.604588	0
113300	11.645516	0
113500	11.686515	0
113700	11.727587	0
113900	11.768730	0
114100	11.809946	0
114300	11.851234	0
114500	11.892593	0
114700	11.934025	0
114900	11.975529	30
115100	12.017105	2835
115300	12.058753	0
115500	12.100473	0
115700	12.142265	0
115900	12.184129	0
116100	12.226065	0
116300	12.268073	0
116500	12.310153	0
116700	12.352306	0
116900	12.394530	0
117100	12.436826	0
117300	12.479195	0
117500	12.521635	0
117700	12.564148	0
117900	12.606732	0
118100	12.649389	0
118300	12.692117	0
118500	12.734918	0
118700	12.777791	0
118900	12.820735	0
119100	12.863752	0
119300	12.906841	0
119500	12.950002	0
119700	12.993235	1804
119900	13.036540	2
120100	13.079917	0
120300	13.123366	0
120500	13.166887	0
120700	13.210480	0
120900	13.254145	0
121100	13.297883	0
121300	13.341692	0
121500	13.385573	0
121700	13.429527	0
121900	13.473552	0
122100	13.517649	0
122300	13.561819	0
122500	13.606061	0
122700	13.650374	0
122900	13.694760	0
123100	13.739218	0
123300	13.783747	0
123500	13.828349	0
123700	13.873023	0
123900	13.917769	1
124100	13.962587	0
124300	14.007477	1944
124500	14.052439	1
124700	14.097473	0
124900	14.142579	0
125100	14.187757	0
125300	14.233007	0
125500	14.278329	0
125700	14.323724	0
125900	14.369190	1
126100	14.414728	0
126300	14.460339	0
126500	14.506021	0
126700	14.551776	0
126900	14.597602	0
127100	14.643501	0
127300	14.689472	0
127500	14.735514	0
127700	14.781629	0
127900	14.827816	0
128100	14.874075	0
128300	14.920405	0
128500	14.966808	0
128700	15.013283	4778
128900	15.059830	12
129100	15.106449	2
129300	15.153141	0
129500	15.199904	0
129700	15.246739	0
129900	15.293646	3
130100	15.340625	0
130300	15.387677	0
130500	15.434800	0
130700	15.481995	0
130900	15.529263	0
131100	15.576602	0
131300	15.624014	0
131500	15.671498	0
131700	15.719053	0
131900	15.766681	0
132100	15.814381	0
132300	15.862152	0
132500	15.909996	0
132700	15.957912	0
132900	16.005900	133
133100	16.053960	15
133300	16.102092	0
133500	16.150296	0
133700	16.198572	0
133900	16.246920	0
134100	16.295340	0
134300	16.343833	0
134500	16.392397	0
134700	16.441033	0
134900	16.489742	0
135100	16.538522	0
135300	16.587375	0
135500	16.636299	0
135700	16.685296	0
135900	16.734364	0
136100	16.783505	0
136300	16.832717	0
136500	16.882002	0
136700	16.931359	0
136900	16.980788	60
137100	17.030289	27
137300	17.079862	0
137500	17.129507	0
137700	17.179224	0
137900	17.229013	0
138100	17.278874	0
138300	17.328807	0
138500	17.378812	0
138700	17.428889	0
138900	17.479038	0
139100	17.529260	0
139300	17.579553	0
139500	17.629919	0
139700	17.680356	0
139900	17.730866	0
140100	17.781447	0
140300	17.832101	0
140500	17.882826	0
140700	17.933624	0
140900	17.984494	15
141100	18.035435	530
141300	18.086449	2
141500	18.137535	0
141700	18.188693	0
141900	18.239923	0
142100	18.291225	0
142300	18.342599	0
142500	18.394045	0
142700	18.445563	1
142900	18.497153	0
143100	18.548816	0
143300	18.600550	0
143500	18.652356	0
143700	18.704235	0
143900	18.756185	0
144100	18.808207	0
144300	18.860302	0
144500	18.912468	0
144700	18.964707	0
144900	19.017018	170
145100	19.069400	1
145300	19.121855	0
145500	19.174382	0
145700	19.226981	0
145900	19.279651	0
146100	19.332394	0
146300	19.385209	0
146500	19.438096	0
146700	19.491055	0
146900	19.544086	0
147100	19.597190	0
147300	19.650365	0
147500	19.703612	0
147700	19.756931	0
147900	19.810323	0
148100	19.863786	0
148300	19.917321	0
148500	19.970929	6
148700	20.024608	1
148900	20.078360	0
149100	20.132183	0
149300	20.186079	0
149500	20.240047	0
149700	20.294086	0
149900	20.348198	1
150100	20.402382	0
150300	20.456638	0
150500	20.510966	0
150700	20.565366	0
150900	20.619838	0
151100	20.674382	1
151300	20.728998	0
151500	20.783686	0
151700	20.838446	1
151900	20.893278	0
152100	20.948182	0
152300	21.003159	0
152500	21.058207	0
152700	21.113327	0
152900	21.168520	0
153100	21.223784	0
153300	21.279121	0
153500	21.334530	0
153700	21.390010	0
153900	21.445563	0
154100	21.501188	0
154300	21.556884	0
154500	21.612653	0
154700	21.668494	1
154900	21.724407	0
155100	21.780392	0
155300	21.836449	0
155500	21.892578	0
155700	21.948779	0
155900	22.005052	0
156100	22.061397	0
156300	22.117814	0
156500	22.174304	0
156700	22.230865	0
156900	22.287498	0
157100	22.344204	0
157300	22.400981	3
157500	22.457831	0
157700	22.514752	1
157900	22.571746	0
158100	22.628811	0
158300	22.685949	0
158500	22.743159	1
158700	22.800440	1
158900	22.857794	8
159100	22.915220	44
159300	22.972718	671372
159500	23.030288	43603
159700	23.087930	2459
159900	23.145644	1302
160100	23.203430	810
160300	23.261288	508
160500	23.319218	388
160700	23.377220	284
160900	23.435295	191
161100	23.493441	165
161300	23.551659	135
161500	23.609950	88
161700	23.668312	79
161900	23.726747	68
162100	23.785253	45
162300	23.843832	51
162500	23.902482	35
162700	23.961205	287
162900	24.020000	452
163100	24.078866	25
163300	24.137805	20
163500	24.196816	19
163700	24.255899	18
163900	24.315054	14
164100	24.374281	9
164300	24.433580	10
164500	24.492951	6
164700	24.552394	11
164900	24.611909	10
165100	24.671496	5
165300	24.731156	5
165500	24.790887	10
165700	24.850690	5
165900	24.910566	4
166100	24.970513	67
166300	25.030532	656
166500	25.090624	2
166700	25.150788	4
166900	25.211023	4
167100	25.271331	0
167300	25.331710	1
167500	25.392162	6
167700	25.452686	3
167900	25.513282	2
168100	25.573950	2
168300	25.634690	2
168500	25.695502	2
168700	25.756386	3
168900	25.817342	1
169100	25.878370	3
169300	25.939470	31
169500	26.000642	2746
169700	26.061886	13
169900	26.123203	5
170100	26.184591	0
170300	26.246051	2
170500	26.307584	2
170700	26.369188	1
170900	26.430865	0
171100	26.492613	0
171300	26.554434	1
171500	26.616327	1
171700	26.678291	0
171900	26.740328	0
172100	26.802437	2
172300	26.864618	0
172500	26.926871	7
172700	26.989195	3636
172900	27.051592	10290
173100	27.114061	12
173300	27.176602	3
173500	27.239216	3
173700	27.301901	0
173900	27.364658	0
174100	27.427487	1
174300	27.490388	3
174500	27.553362	0
174700	27.616407	3
174900	27.679525	0
175100	27.742714	0
175300	27.805976	0
175500	27.869309	1
175700	27.932715	10
175900	27.996192	3739
176100	28.059742	1305
176300	28.123364	1
176500	28.187058	0
176700	28.250823	3
176900	28.314661	3
177100	28.378571	0
177300	28.442553	2
177500	28.506607	1
177700	28.570733	0
177900	28.634931	0
178100	28.699201	3
178300	28.763544	2
178500	28.827958	1
178700	28.892444	1
178900	28.957002	316
179100	29.021633	16260
179300	29.086335	92
179500	29.151110	5
179700	29.215956	4
179900	29.280875	2
180100	29.345865	7
180300	29.410928	4
180500	29.476063	1
180700	29.541269	1
180900	29.606548	0
181100	29.671899	1
181300	29.737322	0
181500	29.802817	1
181700	29.868384	1
181900	29.934023	1
182100	29.999734	762
182300	30.065517	1463
182500	30.131372	3
182700	30.197299	2
182900	30.263298	0
183100	30.329370	1
183300	30.395513	0
183500	30.461728	0
183700	30.528016	1
183900	30.594375	0
184100	30.660807	0
184300	30.727310	0
184500	30.793886	0
184700	30.860533	3
184900	30.927253	2
185100	30.994045	1489
185300	31.060909	99
185500	31.127844	0
185700	31.194852	0
185900	31.261932	1
186100	31.329084	2
186300	31.396308	0
186500	31.463604	0
186700	31.530972	3
186900	31.598412	2
187100	31.665925	0
187300	31.733509	3
187500	31.801165	2
187700	31.868893	0
187900	31.936694	6
188100	32.004566	33
188300	32.072511	55
188500	32.140527	0
188700	32.208616	0
188900	32.276776	0
189100	32.345009	2
189300	32.413314	2
189500	32.481690	1
189700	32.550139	0
189900	32.618660	0
190100	32.687253	1
190300	32.755918	0
190500	32.824655	0
190700	32.893464	0
190900	32.962345	5
191100	33.031298	11
191300	33.100323	0
191500	33.169420	0
191700	33.238589	1
191900	33.307830	0
192100	33.377144	1
192300	33.446529	3
192500	33.515987	0
192700	33.585516	0
192900	33.655117	0
193100	33.724791	0
193300	33.794537	0
193500	33.864354	0
193700	33.934244	1
193900	34.004206	1
194100	34.074239	0
194300	34.144345	0
194500	34.214523	0
194700	34.284773	0
194900	34.355095	0
195100	34.425489	0
195300	34.495955	0
195500	34.566493	1
195700	34.637103	0
195900	34.707785	0
196100	34.778539	1
196300	34.849366	0
196500	34.920264	0
196700	34.991234	47
196900	35.062277	0
197100	35.133391	0
197300	35.204578	0
197500	35.275836	0
197700	35.347167	0
197900	35.418569	0
198100	35.490044	0
198300	35.561591	0
198500	35.633210	0
198700	35.704900	1
198900	35.776663	0
199100	35.848498	0
199300	35.920405	0
199500	35.992384	207
199700	36.064435	1
199900	36.136558	0
200100	36.208753	0
200300	36.281020	1
200500	36.353360	0
200700	36.425771	0
200900	36.498254	0
201100	36.570810	0
201300	36.643437	0
201500	36.716136	1
201700	36.788908	0
201900	36.861751	1
202100	36.934667	68
202300	37.007655	1158
202500	37.080714	3
202700	37.153846	0
202900	37.227050	2
203100	37.300326	1
203300	37.373673	1
203500	37.447093	0
203700	37.520585	0
203900	37.594149	0
204100	37.667785	0
204300	37.741493	0
204500	37.815273	0
204700	37.889126	0
204900	37.963050	93
205100	38.037046	1715
205300	38.111114	0
205500	38.185255	1
205700	38.259467	2
205900	38.333751	1
206100	38.408108	2
206300	38.482536	0
206500	38.557037	1
206700	38.631610	1
206900	38.706254	0
207100	38.780971	0
207300	38.855760	15
207500	38.930621	39606
207700	39.005553	24219
207900	39.080558	909
208100	39.155635	469
208300	39.230784	326
