# Binning: 200 channels
# Deadtime Correction: on
Channel	m/z	Intensity
100	0.000222	0
300	0.000436	0
500	0.000722	0
700	0.001080	0
900	0.001509	0
1100	0.002011	0
1300	0.002584	0
1500	0.003228	0
1700	0.003945	0
1900	0.004733	0
2100	0.005593	0
2300	0.006524	0
2500	0.007528	0
2700	0.008603	0
2900	0.009750	0
3100	0.010968	0
3300	0.012259	0
3500	0.013621	0
3700	0.015055	0
3900	0.016560	0
4100	0.018137	0
4300	0.019786	0
4500	0.021507	0
4700	0.023300	0
4900	0.025164	0
5100	0.027100	0
5300	0.029108	0
5500	0.031187	0
5700	0.033338	0
5900	0.035561	0
6100	0.037856	0
6300	0.040222	0
6500	0.042660	0
6700	0.045170	0
6900	0.047752	0
7100	0.050405	0
7300	0.053130	0
7500	0.055927	0
7700	0.058796	0
7900	0.061736	0
8100	0.064748	0
8300	0.067832	0
8500	0.070987	0
8700	0.074215	0
8900	0.077513	0
9100	0.080884	0
9300	0.084327	0
9500	0.087841	0
9700	0.091427	0
9900	0.095084	0
10100	0.098814	0
10300	0.102615	0
10500	0.106488	0
10700	0.110432	0
10900	0.114449	0
11100	0.118537	0
11300	0.122697	0
11500	0.126928	0
11700	0.131232	0
11900	0.135607	0
12100	0.140053	0
12300	0.144572	0
12500	0.149162	0
12700	0.153824	0
12900	0.158558	0
13100	0.163363	0
13300	0.168241	0
13500	0.173190	0
13700	0.178210	0
13900	0.183303	0
14100	0.188467	0
14300	0.193703	0
14500	0.199010	0
14700	0.204390	0
14900	0.209841	0
15100	0.215364	0
15300	0.220958	0
15500	0.226624	0
15700	0.232362	0
15900	0.238172	0
16100	0.244054	0
16300	0.250007	0
16500	0.256032	0
16700	0.262129	0
16900	0.268297	0
17100	0.274537	0
17300	0.280849	0
17500	0.287233	0
17700	0.293688	0
17900	0.300216	0
18100	0.306815	0
18300	0.313485	0
18500	0.320228	0
18700	0.327042	0
18900	0.333928	0
19100	0.340885	0
19300	0.347914	0
19500	0.355015	0
19700	0.362188	0
19900	0.369433	0
20100	0.376749	0
20300	0.384137	0
20500	0.391597	0
20700	0.399128	0
20900	0.406731	0
21100	0.414406	0
21300	0.422153	0
21500	0.429972	0
21700	0.437862	0
21900	0.445824	0
22100	0.453857	0
22300	0.461963	0
22500	0.470140	0
22700	0.478389	0
22900	0.486709	0
23100	0.495102	0
23300	0.503566	0
23500	0.512101	0
23700	0.520709	0
23900	0.529388	0
24100	0.538139	0
24300	0.546962	0
24500	0.555856	0
24700	0.564823	0
24900	0.573861	0
25100	0.582970	0
25300	0.592152	0
25500	0.601405	0
25700	0.610730	0
25900	0.620127	0
26100	0.629595	0
26300	0.639135	0
26500	0.648747	0
26700	0.658430	0
26900	0.668186	0
27100	0.678013	0
27300	0.687912	0
27500	0.697882	0
27700	0.707925	0
27900	0.718039	0
28100	0.728224	0
28300	0.738482	0
28500	0.748811	0
28700	0.759212	0
28900	0.769685	0
29100	0.780229	0
29300	0.790845	0
29500	0.801533	0
29700	0.812293	0
29900	0.823124	0
30100	0.834027	0
30300	0.845002	0
30500	0.856049	0
30700	0.867167	0
30900	0.878357	0
31100	0.889619	0
31300	0.900953	0
31500	0.912358	0
31700	0.923835	0
31900	0.935384	0
32100	0.947004	0
32300	0.958697	0
32500	0.970461	0
32700	0.982296	0
32900	0.994204	0
33100	1.006183	15862
33300	1.018234	2
33500	1.030356	0
33700	1.042551	2
33900	1.054817	0
34100	1.067155	2
34300	1.079565	0
34500	1.092046	0
34700	1.104599	0
34900	1.117224	0
35100	1.129920	0
35300	1.142689	0
35500	1.155529	0
35700	1.168440	0
35900	1.181424	0
36100	1.194479	0
36300	1.207606	0
36500	1.220805	0
36700	1.234075	0
36900	1.247418	0
37100	1.260832	0
37300	1.274317	0
37500	1.287875	0
37700	1.301504	0
37900	1.315205	0
38100	1.328977	0
38300	1.342822	0
38500	1.356738	0
38700	1.370726	0
38900	1.384785	0
39100	1.398916	0
39300	1.413120	0
39500	1.427394	0
39700	1.441741	0
39900	1.456159	0
40100	1.470649	0
40300	1.485211	0
40500	1.499844	0
40700	1.514549	0
40900	1.529326	0
41100	1.544175	1
41300	1.559096	0
41500	1.574088	0
41700	1.589152	0
41900	1.604287	0
42100	1.619495	0
42300	1.634774	0
42500	1.650125	0
42700	1.665547	0
42900	1.681041	0
43100	1.696607	0
43300	1.712245	0
43500	1.727955	0
43700	1.743736	0
43900	1.759589	0
44100	1.775514	0
44300	1.791510	0
44500	1.807579	0
44700	1.823718	0
44900	1.839930	0
45100	1.856214	0
45300	1.872569	0
45500	1.888996	0
45700	1.905494	0
45900	1.922065	0
46100	1.938707	0
46300	1.955421	0
46500	1.972206	0
46700	1.989064	0
46900	2.005993	21
47100	2.022993	378
47300	2.040066	0
47500	2.057210	0
47700	2.074426	0
47900	2.091714	0
48100	2.109073	0
48300	2.126505	0
48500	2.144008	0
48700	2.161582	0
48900	2.179229	0
49100	2.196947	0
49300	2.214737	0
49500	2.232599	0
49700	2.250532	0
49900	2.268537	0
50100	2.286614	0
50300	2.304762	0
50500	2.322983	0
50700	2.341275	0
50900	2.359639	0
51100	2.378074	0
51300	2.396582	0
51500	2.415161	0
51700	2.433811	0
51900	2.452534	0
52100	2.471328	0
52300	2.490194	0
52500	2.509132	0
52700	2.528141	0
52900	2.547222	0
53100	2.566375	0
53300	2.585600	0
53500	2.604896	0
53700	2.624264	0
53900	2.643704	0
54100	2.663216	0
54300	2.682799	0
54500	2.702454	0
54700	2.722181	0
54900	2.741980	0
55100	2.761850	0
55300	2.781792	0
55500	2.801806	0
55700	2.821891	0
55900	2.842049	0
56100	2.862278	0
56300	2.882578	0
56500	2.902951	0
56700	2.923395	0
56900	2.943911	0
57100	2.964498	0
57300	2.985158	0
57500	3.005889	0
57700	3.026692	35
57900	3.047567	0
58100	3.068513	0
58300	3.089531	0
58500	3.110621	0
58700	3.131782	0
58900	3.153016	0
59100	3.174321	0
59300	3.195697	0
59500	3.217146	0
59700	3.238666	0
59900	3.260258	0
60100	3.281922	0
60300	3.303657	0
60500	3.325465	0
60700	3.347344	0
60900	3.369294	0
61100	3.391317	0
61300	3.413411	0
61500	3.435577	0
61700	3.457814	0
61900	3.480124	0
62100	3.502505	0
62300	3.524958	0
62500	3.547482	0
62700	3.570078	0
62900	3.592746	0
63100	3.615486	0
63300	3.638298	0
63500	3.661181	0
63700	3.684136	0
63900	3.707163	0
64100	3.730261	0
64300	3.753431	0
64500	3.776673	0
64700	3.799987	0
64900	3.823372	0
65100	3.846830	0
65300	3.870359	0
65500	3.893959	0
65700	3.917632	0
65900	3.941376	0
66100	3.965191	0
66300	3.989079	0
66500	4.013038	0
66700	4.037069	0
66900	4.061172	0
67100	4.085347	0
67300	4.109593	0
67500	4.133911	0
67700	4.158301	0
67900	4.182762	0
68100	4.207295	0
68300	4.231900	0
68500	4.256577	0
68700	4.281326	0
68900	4.306146	0
69100	4.331038	0
69300	4.356001	0
69500	4.381037	0
69700	4.406144	0
69900	4.431323	0
70100	4.456573	0
70300	4.481895	0
70500	4.507290	0
70700	4.532755	0
70900	4.558293	0
71100	4.583902	0
71300	4.609583	0
71500	4.635336	0
71700	4.661160	0
71900	4.687057	0
72100	4.713025	0
72300	4.739064	0
72500	4.765176	0
72700	4.791359	0
72900	4.817614	0
73100	4.843940	0
73300	4.870339	0
73500	4.896809	0
73700	4.923351	0
73900	4.949964	0
74100	4.976650	0
74300	5.003407	0
74500	5.030236	0
74700	5.057136	0
74900	5.084108	0
75100	5.111152	0
75300	5.138268	0
75500	5.165456	0
75700	5.192715	0
75900	5.220046	0
76100	5.247449	0
76300	5.274923	0
76500	5.302469	0
76700	5.330087	0
76900	5.357777	0
77100	5.385538	0
77300	5.413371	0
77500	5.441276	0
77700	5.469253	0
77900	5.497301	0
78100	5.525421	0
78300	5.553613	0
78500	5.581877	0
78700	5.610212	0
78900	5.638619	0
79100	5.667098	0
79300	5.695648	0
79500	5.724270	0
79700	5.752964	0
79900	5.781730	0
80100	5.810568	0
80300	5.839477	0
80500	5.868458	0
80700	5.897510	0
80900	5.926635	0
81100	5.955831	0
81300	5.985099	0
81500	6.014438	131
81700	6.043850	1
81900	6.073333	0
82100	6.102888	0
82300	6.132514	0
82500	6.162213	0
82700	6.191983	0
82900	6.221824	0
83100	6.251738	0
83300	6.281723	0
83500	6.311780	0
83700	6.341909	0
83900	6.372109	0
84100	6.402381	0
84300	6.432725	0
84500	6.463141	0
84700	6.493628	0
84900	6.524188	0
85100	6.554819	0
85300	6.585521	0
85500	6.616295	0
85700	6.647142	0
85900	6.678059	0
86100	6.709049	0
86300	6.740110	0
86500	6.771243	0
86700	6.802448	0
86900	6.833725	0
87100	6.865073	0
87300	6.896493	0
87500	6.927985	0
87700	6.959548	0
87900	6.991183	0
88100	7.022890	1709
88300	7.054669	0
88500	7.086519	2
88700	7.118441	0
88900	7.150435	0
89100	7.182501	0
89300	7.214638	0
89500	7.246847	0
89700	7.279128	0
89900	7.311481	1
90100	7.343905	0
90300	7.376401	0
90500	7.408969	0
90700	7.441609	0
90900	7.474320	0
91100	7.507103	0
91300	7.539958	0
91500	7.572884	1
91700	7.605882	0
91900	7.638952	0
92100	7.672094	1
92300	7.705307	0
92500	7.738593	0
92700	7.771949	0
92900	7.805378	0
93100	7.838878	0
93300	7.872451	0
93500	7.906094	0
93700	7.939810	0
93900	7.973597	0
94100	8.007456	0
94300	8.041387	0
94500	8.075390	0
94700	8.109464	0
94900	8.143610	0
95100	8.177828	0
95300	8.212117	0
95500	8.246478	0
95700	8.280911	0
95900	8.315416	0
96100	8.349993	0
96300	8.384641	0
96500	8.419361	0
96700	8.454152	0
96900	8.489016	0
97100	8.523951	0
97300	8.558958	0
97500	8.594036	0
97700	8.629187	0
97900	8.664409	0
98100	8.699702	0
98300	8.735068	0
98500	8.770505	0
98700	8.806014	0
98900	8.841595	0
99100	8.877248	0
99300	8.912972	0
99500	8.948768	0
99700	8.984635	0
99900	9.020575	0
100100	9.056586	0
100300	9.092669	0
100500	9.128824	0
100700	9.165050	0
100900	9.201348	0
101100	9.237718	0
101300	9.274160	0
101500	9.310673	0
101700	9.347258	0
101900	9.383915	0
102100	9.420643	0
102300	9.457444	0
102500	9.494316	0
102700	9.531260	0
102900	9.568275	0
103100	9.605362	0
103300	9.642521	0
103500	9.679752	0
103700	9.717054	0
103900	9.754429	0
104100	9.791875	0
104300	9.829392	0
104500	9.866982	0
104700	9.904643	0
104900	9.942376	0
105100	9.980180	0
105300	10.018057	75
105500	10.056005	0
105700	10.094024	0
105900	10.132116	0
106100	10.170279	0
106300	10.208514	0
106500	10.246821	0
106700	10.285200	0
106900	10.323650	0
107100	10.362172	0
107300	10.400766	0
107500	10.439431	0
107700	10.478168	0
107900	10.516977	0
108100	10.555858	0
108300	10.594810	0
108500	10.633834	0
108700	10.672930	0
108900	10.712098	0
109100	10.751337	0
109300	10.790648	0
109500	10.830031	0
109700	10.869486	0
109900	10.909012	0
110100	10.948610	0
110300	10.988280	128
110500	11.028021	171
110700	11.067835	0
110900	11.107720	0
111100	11.147676	0
111300	11.187705	0
111500	11.227805	0
111700	11.267977	0
111900	11.308221	0
112100	11.348536	0
112300	11.388923	0
112500	11.429382	0
112700	11.469913	0
112900	11.510515	0
113100	11.551189	0
113300	11.591935	0
113500	11.632753	0
113700	11.673642	0
113900	11.714603	0
114100	11.755636	0
114300	11.796740	1
114500	11.837917	0
114700	11.879165	0
114900	11.920484	0
115100	11.961876	9
115300	12.003339	5640
115500	12.044874	0
115700	12.086481	1
115900	12.128159	0
116100	12.169909	0
116300	12.211731	0
116500	12.253625	0
116700	12.295590	0
116900	12.337627	0
117100	12.379736	0
117300	12.421917	0
117500	12.464169	0
117700	12.506493	0
117900	12.548889	1
118100	12.591356	0
118300	12.633896	0
118500	12.676507	0
118700	12.719190	0
118900	12.761944	0
119100	12.804770	0
119300	12.847668	0
119500	12.890638	0
119700	12.933679	0
119900	12.976792	8
120100	13.019977	3690
120300	13.063234	0
120500	13.106562	0
120700	13.149963	1
120900	13.193434	0
121100	13.236978	0
121300	13.280593	0
121500	13.324280	0
121700	13.368039	0
121900	13.411870	1
122100	13.455772	0
122300	13.499746	0
122500	13.543792	0
122700	13.587909	0
122900	13.632099	0
123100	13.676359	0
123300	13.720692	0
123500	13.765097	0
123700	13.809573	0
123900	13.854121	0
124100	13.898740	0
124300	13.943432	0
124500	13.988195	167
124700	14.033030	7441
124900	14.077936	0
125100	14.122915	0
125300	14.167965	0
125500	14.213087	0
125700	14.258280	1
125900	14.303545	1
126100	14.348882	0
126300	14.394291	0
126500	14.439772	0
126700	14.485324	0
126900	14.530948	0
127100	14.576644	0
127300	14.622411	0
127500	14.668250	0
127700	14.714161	0
127900	14.760144	0
128100	14.806198	0
128300	14.852324	0
128500	14.898522	0
128700	14.944792	0
128900	14.991133	157
129100	15.037546	33216
129300	15.084031	3
129500	15.130588	1
129700	15.177216	1
129900	15.223916	5
130100	15.270688	3
130300	15.317531	0
130500	15.364447	1
130700	15.411434	1
130900	15.458492	2
131100	15.505623	2
131300	15.552825	0
131500	15.600099	0
131700	15.647445	0
131900	15.694862	0
132100	15.742351	0
132300	15.789912	0
132500	15.837545	0
132700	15.885249	1
132900	15.933025	0
133100	15.980873	352
133300	16.028792	461
133500	16.076784	0
133700	16.124847	0
133900	16.172982	0
134100	16.221188	0
134300	16.269466	0
134500	16.317816	1
134700	16.366238	0
134900	16.414732	0
135100	16.463297	0
135300	16.511934	0
135500	16.560642	0
135700	16.609423	0
135900	16.658275	0
136100	16.707199	0
136300	16.756195	1
136500	16.805262	0
136700	16.854401	0
136900	16.903612	0
137100	16.952894	0
137300	17.002249	366
137500	17.051675	76
137700	17.101173	0
137900	17.150742	0
138100	17.200383	0
138300	17.250096	0
138500	17.299881	0
138700	17.349738	1
138900	17.399666	0
139100	17.449666	0
139300	17.499737	0
139500	17.549881	0
139700	17.600096	0
139900	17.650383	0
140100	17.700742	0
140300	17.751172	0
140500	17.801674	0
140700	17.852248	0
140900	17.902893	0
141100	17.953611	0
141300	18.004400	340
141500	18.055261	2808
141700	18.106193	10
141900	18.157197	2
142100	18.208273	3
142300	18.259421	1
142500	18.310641	0
142700	18.361932	1
142900	18.413295	0
143100	18.464730	0
143300	18.516236	0
143500	18.567814	2
143700	18.619464	0
143900	18.671186	0
144100	18.722979	1
144300	18.774844	0
144500	18.826781	0
144700	18.878790	0
144900	18.930870	0
145100	18.983022	34
145300	19.035246	612
145500	19.087541	1
145700	19.139909	1
145900	19.192348	0
146100	19.244858	0
146300	19.297441	0
146500	19.350095	0
146700	19.402821	0
146900	19.455619	0
147100	19.508488	1
147300	19.561429	0
147500	19.614442	0
147700	19.667527	0
147900	19.720683	0
148100	19.773912	2
148300	19.827211	2
148500	19.880583	1
148700	19.934026	0
148900	19.987541	44
149100	20.041128	0
149300	20.094787	1
149500	20.148517	1
149700	20.202319	1
149900	20.256193	0
150100	20.310138	1
150300	20.364156	0
150500	20.418245	1
150700	20.472405	0
150900	20.526638	0
151100	20.580942	0
151300	20.635318	2
151500	20.689766	3
151700	20.744285	2
151900	20.798876	2
152100	20.853539	0
152300	20.908274	1
152500	20.963080	5
152700	21.017958	5
152900	21.072908	2
153100	21.127929	1
153300	21.183023	2
153500	21.238188	1
153700	21.293424	2
153900	21.348733	0
154100	21.404113	1
154300	21.459565	5
154500	21.515089	3
154700	21.570684	2
154900	21.626352	3
155100	21.682091	0
155300	21.737901	3
155500	21.793784	0
155700	21.849738	1
155900	21.905764	2
156100	21.961861	2
156300	22.018031	1
156500	22.074272	0
156700	22.130585	1
156900	22.186969	0
157100	22.243425	1
157300	22.299953	0
157500	22.356553	0
157700	22.413225	0
157900	22.469968	1
158100	22.526783	0
158300	22.583670	0
158500	22.640628	0
158700	22.697658	0
158900	22.754760	3
159100	22.811934	4
159300	22.869179	5
159500	22.926497	119
159700	22.983885	2426519
159900	23.041346	18975
160100	23.098878	661
160300	23.156483	421
160500	23.214158	314
160700	23.271906	215
160900	23.329725	143
161100	23.387616	112
161300	23.445579	82
161500	23.503614	61
161700	23.561720	50
161900	23.619898	44
162100	23.678148	25
162300	23.736469	29
162500	23.794862	20
162700	23.853327	16
162900	23.911864	20
163100	23.970472	1749
163300	24.029153	169
163500	24.087904	7
163700	24.146728	8
163900	24.205624	9
164100	24.264591	9
164300	24.323629	6
164500	24.382740	5
164700	24.441922	2
164900	24.501176	9
165100	24.560502	2
165300	24.619900	6
165500	24.679369	2
165700	24.738910	1
165900	24.798523	2
166100	24.858207	3
166300	24.917963	1
166500	24.977791	1314
166700	25.037691	371
166900	25.097663	3
167100	25.157706	1
167300	25.217821	1
167500	25.278007	2
167700	25.338266	2
167900	25.398596	1
168100	25.458998	4
168300	25.519471	1
168500	25.580017	3
168700	25.640634	4
168900	25.701322	2
169100	25.762083	2
169300	25.822915	0
169500	25.883819	5
169700	25.944795	227
169900	26.005843	9341
170100	26.066962	6
170300	26.128153	1
170500	26.189415	0
170700	26.250750	0
170900	26.312156	0
171100	26.373634	4
171300	26.435184	3
171500	26.496805	1
171700	26.558498	0
171900	26.620263	0
172100	26.682100	1
172300	26.744008	0
172500	26.805988	1
172700	26.868040	2
172900	26.930163	53
173100	26.992359	30886
173300	27.054626	15698
173500	27.116964	12
173700	27.179375	7
173900	27.241857	5
174100	27.304411	7
174300	27.367037	3
174500	27.429734	1
174700	27.492504	4
174900	27.555344	2
175100	27.618257	1
175300	27.681242	3
175500	27.744298	4
175700	27.807426	3
175900	27.870625	5
176100	27.933896	221
176300	27.997240	22314
176500	28.060654	4104
176700	28.124141	5
176900	28.187699	8
177100	28.251329	6
177300	28.315031	3
177500	28.378805	4
177700	28.442650	1
177900	28.506567	3
178100	28.570556	5
178300	28.634616	2
178500	28.698748	1
178700	28.762952	0
178900	28.827228	3
179100	28.891575	9
179300	28.955994	2089
179500	29.020485	48488
179700	29.085048	223
179900	29.149682	16
180100	29.214388	4
180300	29.279166	10
180500	29.344016	10
180700	29.408937	4
180900	29.473930	3
181100	29.538995	7
181300	29.604131	4
181500	29.669340	5
181700	29.734620	6
181900	29.799971	2
182100	29.865395	5
182300	29.930890	14
182500	29.996457	2140
182700	30.062096	5592
182900	30.127806	6
183100	30.193588	5
183300	30.259442	0
183500	30.325368	1
183700	30.391365	2
183900	30.457434	5
184100	30.523575	1
184300	30.589788	1
184500	30.656072	4
184700	30.722428	2
184900	30.788856	3
185100	30.855355	2
185300	30.921926	5
185500	30.988569	5212
185700	31.055284	1315
185900	31.122071	5
186100	31.188929	13
186300	31.255859	6
186500	31.322861	5
186700	31.389934	2
186900	31.457079	3
187100	31.524296	11
187300	31.591585	0
187500	31.658945	0
187700	31.726377	4
187900	31.793881	0
188100	31.861457	2
188300	31.929104	1
188500	31.996823	130
188700	32.064614	210
188900	32.132476	1
189100	32.200411	1
189300	32.268417	1
189500	32.336494	1
189700	32.404644	1
189900	32.472865	0
190100	32.541158	3
190300	32.609523	0
190500	32.677959	1
190700	32.746467	2
190900	32.815047	0
191100	32.883699	1
191300	32.952422	7
191500	33.021217	58
191700	33.090084	1
191900	33.159023	0
192100	33.228033	0
192300	33.297115	0
192500	33.366269	7
192700	33.435495	6
192900	33.504792	2
193100	33.574161	1
193300	33.643602	1
193500	33.713114	3
193700	33.782698	3
193900	33.852354	0
194100	33.922082	0
194300	33.991881	11
194500	34.061753	9
194700	34.131695	2
194900	34.201710	2
195100	34.271797	1
195300	34.341955	0
195500	34.412185	0
195700	34.482486	0
195900	34.552859	1
196100	34.623305	2
196300	34.693821	1
196500	34.764410	1
196700	34.835070	1
196900	34.905802	1
197100	34.976606	373
197300	35.047481	5
197500	35.118429	0
197700	35.189448	1
197900	35.260538	2
198100	35.331701	0
198300	35.402935	1
198500	35.474241	2
198700	35.545619	2
198900	35.617068	1
199100	35.688589	0
199300	35.760182	0
199500	35.831847	1
199700	35.903583	0
199900	35.975391	455
200100	36.047271	5
200300	36.119222	1
200500	36.191246	1
200700	36.263341	0
200900	36.335508	0
201100	36.407746	0
201300	36.480056	2
201500	36.552438	0
201700	36.624892	0
201900	36.697417	0
202100	36.770015	0
202300	36.842684	0
202500	36.915424	126
202700	36.988237	2849
202900	37.061121	11
203100	37.134077	4
203300	37.207104	4
203500	37.280204	4
203700	37.353375	1
203900	37.426618	2
204100	37.499932	0
204300	37.573318	3
204500	37.646776	3
204700	37.720306	0
204900	37.793908	2
205100	37.867581	3
205300	37.941326	147
205500	38.015143	4912
205700	38.089031	4
205900	38.162991	2
206100	38.237023	5
206300	38.311127	4
206500	38.385302	3
206700	38.459550	3
206900	38.533868	4
207100	38.608259	4
207300	38.682721	3
207500	38.757256	3
207700	38.831861	10
207900	38.906539	458
208100	38.981288	156000
