# Binning: 200 channels
# Deadtime Correction: on
Channel	m/z	Intensity
100	0.000395	0
300	0.000668	0
500	0.001011	0
700	0.001425	0
900	0.001910	0
1100	0.002465	0
1300	0.003092	0
1500	0.003790	0
1700	0.004558	0
1900	0.005397	0
2100	0.006308	0
2300	0.007289	0
2500	0.008341	0
2700	0.009464	0
2900	0.010657	0
3100	0.011922	0
3300	0.013257	0
3500	0.014664	0
3700	0.016141	0
3900	0.017689	0
4100	0.019308	0
4300	0.020998	0
4500	0.022759	0
4700	0.024591	0
4900	0.026494	0
5100	0.028467	0
5300	0.030511	0
5500	0.032627	0
5700	0.034813	0
5900	0.037070	0
6100	0.039398	0
6300	0.041797	0
6500	0.044266	0
6700	0.046807	0
6900	0.049418	0
7100	0.052101	0
7300	0.054854	0
7500	0.057678	0
7700	0.060573	0
7900	0.063539	0
8100	0.066576	0
8300	0.069684	0
8500	0.072862	0
8700	0.076112	0
8900	0.079432	0
9100	0.082823	0
9300	0.086285	0
9500	0.089818	0
9700	0.093422	0
9900	0.097097	0
10100	0.100843	0
10300	0.104659	0
10500	0.108547	0
10700	0.112505	0
10900	0.116534	0
11100	0.120634	0
11300	0.124805	0
11500	0.129047	0
11700	0.133360	0
11900	0.137744	0
12100	0.142198	0
12300	0.146724	0
12500	0.151320	0
12700	0.155987	0
12900	0.160725	0
13100	0.165534	0
13300	0.170414	0
13500	0.175365	0
13700	0.180386	0
13900	0.185479	0
14100	0.190642	0
14300	0.195877	0
14500	0.201182	0
14700	0.206558	0
14900	0.212005	0
15100	0.217523	0
15300	0.223111	0
15500	0.228771	0
15700	0.234501	0
15900	0.240303	0
16100	0.246175	0
16300	0.252118	0
16500	0.258132	0
16700	0.264217	0
16900	0.270373	0
17100	0.276600	0
17300	0.282897	0
17500	0.289266	0
17700	0.295705	0
17900	0.302215	0
18100	0.308797	0
18300	0.315449	0
18500	0.322172	0
18700	0.328965	0
18900	0.335830	0
19100	0.342766	0
19300	0.349772	0
19500	0.356849	0
19700	0.363998	0
19900	0.371217	0
20100	0.378507	0
20300	0.385868	0
20500	0.393299	0
20700	0.400802	0
20900	0.408376	0
21100	0.416020	0
21300	0.423735	0
21500	0.431522	0
21700	0.439379	0
21900	0.447307	0
22100	0.455305	0
22300	0.463375	0
22500	0.471516	0
22700	0.479727	0
22900	0.488010	0
23100	0.496363	0
23300	0.504787	0
23500	0.513282	0
23700	0.521848	0
23900	0.530485	0
24100	0.539193	0
24300	0.547972	0
24500	0.556821	0
24700	0.565741	0
24900	0.574733	0
25100	0.583795	0
25300	0.592928	0
25500	0.602132	0
25700	0.611407	0
25900	0.620752	0
26100	0.630169	0
26300	0.639656	0
26500	0.649215	0
26700	0.658844	0
26900	0.668544	0
27100	0.678315	0
27300	0.688157	0
27500	0.698070	0
27700	0.708054	0
27900	0.718108	0
28100	0.728234	0
28300	0.738430	0
28500	0.748697	0
28700	0.759035	0
28900	0.769444	0
29100	0.779924	0
29300	0.790475	0
29500	0.801097	0
29700	0.811789	1
29900	0.822553	0
30100	0.833387	0
30300	0.844292	0
30500	0.855269	0
30700	0.866315	0
30900	0.877433	0
31100	0.888622	0
31300	0.899882	0
31500	0.911212	0
31700	0.922614	0
31900	0.934086	0
32100	0.945629	0
32300	0.957243	0
32500	0.968928	0
32700	0.980684	0
32900	0.992511	1
33100	1.004409	4593
33300	1.016377	30
33500	1.028416	0
33700	1.040527	0
33900	1.052708	0
34100	1.064960	0
34300	1.077283	0
34500	1.089677	0
34700	1.102142	0
34900	1.114677	0
35100	1.127284	0
35300	1.139961	0
35500	1.152709	0
35700	1.165528	0
35900	1.178419	0
36100	1.191379	0
36300	1.204411	0
36500	1.217514	0
36700	1.230688	0
36900	1.243932	0
37100	1.257247	0
37300	1.270634	0
37500	1.284091	0
37700	1.297619	0
37900	1.311218	0
38100	1.324888	0
38300	1.338628	0
38500	1.352440	0
38700	1.366322	0
38900	1.380276	0
39100	1.394300	0
39300	1.408395	0
39500	1.422561	0
39700	1.436798	0
39900	1.451106	0
40100	1.465484	0
40300	1.479934	0
40500	1.494454	0
40700	1.509046	0
40900	1.523708	0
41100	1.538441	0
41300	1.553245	0
41500	1.568120	0
41700	1.583065	0
41900	1.598082	0
42100	1.613170	0
42300	1.628328	0
42500	1.643557	0
42700	1.658858	0
42900	1.674229	0
43100	1.689671	0
43300	1.705183	0
43500	1.720767	0
43700	1.736422	0
43900	1.752147	0
44100	1.767944	0
44300	1.783811	0
44500	1.799749	0
44700	1.815758	0
44900	1.831838	0
45100	1.847989	0
45300	1.864211	0
45500	1.880503	0
45700	1.896867	0
45900	1.913301	0
46100	1.929806	0
46300	1.946383	0
46500	1.963030	0
46700	1.979748	0
46900	1.996536	0
47100	2.013396	350
47300	2.030327	1
47500	2.047328	0
47700	2.064400	0
47900	2.081544	0
48100	2.098758	0
48300	2.116043	0
48500	2.133399	0
48700	2.150826	0
48900	2.168323	0
49100	2.185892	0
49300	2.203531	0
49500	2.221242	0
49700	2.239023	0
49900	2.256875	0
50100	2.274798	0
50300	2.292792	0
50500	2.310857	0
50700	2.328992	0
50900	2.347199	0
51100	2.365476	0
51300	2.383824	0
51500	2.402244	0
51700	2.420734	0
51900	2.439295	0
52100	2.457927	0
52300	2.476629	0
52500	2.495403	0
52700	2.514248	0
52900	2.533163	0
53100	2.552149	0
53300	2.571206	0
53500	2.590334	0
53700	2.609533	1
53900	2.628803	0
54100	2.648144	0
54300	2.667556	0
54500	2.687038	0
54700	2.706592	0
54900	2.726216	0
55100	2.745911	0
55300	2.765677	0
55500	2.785514	0
55700	2.805422	0
55900	2.825400	0
56100	2.845450	0
56300	2.865571	0
56500	2.885762	0
56700	2.906024	0
56900	2.926357	0
57100	2.946761	0
57300	2.967236	0
57500	2.987782	0
57700	3.008399	0
57900	3.029086	166
58100	3.049845	0
58300	3.070674	0
58500	3.091574	0
58700	3.112545	0
58900	3.133587	0
59100	3.154700	0
59300	3.175884	0
59500	3.197139	0
59700	3.218464	0
59900	3.239861	0
60100	3.261328	0
60300	3.282866	0
60500	3.304475	0
60700	3.326155	0
60900	3.347906	0
61100	3.369728	0
61300	3.391621	0
61500	3.413584	0
61700	3.435619	0
61900	3.457724	0
62100	3.479900	0
62300	3.502147	0
62500	3.524465	0
62700	3.546854	0
62900	3.569314	0
63100	3.591844	0
63300	3.614446	0
63500	3.637118	0
63700	3.659862	0
63900	3.682676	0
64100	3.705561	0
64300	3.728517	0
64500	3.751544	0
64700	3.774641	0
64900	3.797810	0
65100	3.821049	0
65300	3.844360	0
65500	3.867741	0
65700	3.891193	0
65900	3.914716	0
66100	3.938310	0
66300	3.961975	0
66500	3.985711	0
66700	4.009517	0
66900	4.033395	0
67100	4.057343	0
67300	4.081362	0
67500	4.105453	0
67700	4.129614	0
67900	4.153845	0
68100	4.178148	0
68300	4.202522	0
68500	4.226966	0
68700	4.251482	0
68900	4.276068	0
69100	4.300726	0
69300	4.325454	0
69500	4.350253	0
69700	4.375122	0
69900	4.400063	0
70100	4.425075	0
70300	4.450157	0
70500	4.475311	0
70700	4.500535	0
70900	4.525830	0
71100	4.551197	0
71300	4.576634	0
71500	4.602141	0
71700	4.627720	0
71900	4.653370	0
72100	4.679090	0
72300	4.704882	0
72500	4.730744	0
72700	4.756677	0
72900	4.782681	0
73100	4.808756	0
73300	4.834902	0
73500	4.861119	0
73700	4.887406	0
73900	4.913765	0
74100	4.940194	0
74300	4.966695	0
74500	4.993266	0
74700	5.019908	0
74900	5.046621	0
75100	5.073405	0
75300	5.100259	0
75500	5.127185	0
75700	5.154181	0
75900	5.181249	0
76100	5.208387	0
76300	5.235596	0
76500	5.262876	0
76700	5.290227	0
76900	5.317649	0
77100	5.345142	0
77300	5.372705	0
77500	5.400340	0
77700	5.428045	0
77900	5.455821	0
78100	5.483668	0
78300	5.511586	0
78500	5.539575	0
78700	5.567635	0
78900	5.595766	0
79100	5.623967	0
79300	5.652240	0
79500	5.680583	1
79700	5.708997	0
79900	5.737482	0
80100	5.766038	0
80300	5.794665	0
80500	5.823363	0
80700	5.852132	0
80900	5.880971	0
81100	5.909882	0
81300	5.938863	0
81500	5.967915	0
81700	5.997038	0
81900	6.026232	90
82100	6.055497	1
82300	6.084833	0
82500	6.114239	0
82700	6.143717	0
82900	6.173265	0
83100	6.202885	0
83300	6.232575	0
83500	6.262336	0
83700	6.292168	0
83900	6.322071	0
84100	6.352044	0
84300	6.382089	0
84500	6.412204	0
84700	6.442391	0
84900	6.472648	0
85100	6.502976	0
85300	6.533375	0
85500	6.563845	0
85700	6.594386	0
85900	6.624998	0
86100	6.655680	0
86300	6.686434	0
86500	6.717258	0
86700	6.748153	0
86900	6.779120	0
87100	6.810157	0
87300	6.841264	0
87500	6.872443	0
87700	6.903693	0
87900	6.935014	0
88100	6.966405	0
88300	6.997867	48
88500	7.029401	1165
88700	7.061005	7
88900	7.092680	0
89100	7.124426	3
89300	7.156242	1
89500	7.188130	1
89700	7.220089	2
89900	7.252118	0
90100	7.284218	1
90300	7.316389	0
90500	7.348632	0
90700	7.380945	0
90900	7.413328	0
91100	7.445783	0
91300	7.478309	0
91500	7.510905	0
91700	7.543573	0
91900	7.576311	0
92100	7.609120	0
92300	7.642000	0
92500	7.674951	0
92700	7.707973	0
92900	7.741066	0
93100	7.774230	0
93300	7.807464	0
93500	7.840769	0
93700	7.874146	0
93900	7.907593	0
94100	7.941111	0
94300	7.974700	0
94500	8.008360	0
94700	8.042090	0
94900	8.075892	0
95100	8.109764	0
95300	8.143708	0
95500	8.177722	0
95700	8.211807	0
95900	8.245963	0
96100	8.280190	0
96300	8.314488	0
96500	8.348857	0
96700	8.383296	0
96900	8.417807	0
97100	8.452388	0
97300	8.487040	0
97500	8.521763	0
97700	8.556558	0
97900	8.591422	0
98100	8.626358	0
98300	8.661365	0
98500	8.696442	0
98700	8.731591	0
98900	8.766810	0
99100	8.802100	0
99300	8.837462	0
99500	8.872894	0
99700	8.908396	0
99900	8.943970	0
100100	8.979615	0
100300	9.015330	0
100500	9.051117	0
100700	9.086974	0
100900	9.122902	0
101100	9.158901	0
101300	9.194971	0
101500	9.231112	0
101700	9.267324	0
101900	9.303607	0
102100	9.339960	0
102300	9.376385	0
102500	9.412880	0
102700	9.449446	0
102900	9.486083	0
103100	9.522791	0
103300	9.559570	0
103500	9.596420	0
103700	9.633340	0
103900	9.670332	0
104100	9.707394	0
104300	9.744527	0
104500	9.781732	0
104700	9.819007	0
104900	9.856352	0
105100	9.893769	0
105300	9.931257	0
105500	9.968816	1
105700	10.006445	35
105900	10.044145	0
106100	10.081917	0
106300	10.119759	0
106500	10.157672	0
106700	10.195656	0
106900	10.233711	0
107100	10.271836	0
107300	10.310033	0
107500	10.348300	0
107700	10.386639	0
107900	10.425048	0
108100	10.463528	0
108300	10.502079	0
108500	10.540701	0
108700	10.579394	0
108900	10.618157	0
109100	10.656992	0
109300	10.695897	0
109500	10.734874	0
109700	10.773921	0
109900	10.813039	0
110100	10.852228	0
110300	10.891488	0
110500	10.930819	0
110700	10.970220	0
110900	11.009693	114
111100	11.049236	0
111300	11.088850	0
111500	11.128536	0
111700	11.168292	0
111900	11.208119	0
112100	11.248017	0
112300	11.287985	0
112500	11.328025	0
112700	11.368135	0
112900	11.408317	0
113100	11.448569	0
113300	11.488892	0
113500	11.529286	0
113700	11.569751	0
113900	11.610287	0
114100	11.650894	0
114300	11.691571	1
114500	11.732320	0
114700	11.773139	0
114900	11.814030	0
115100	11.854991	0
115300	11.896023	0
115500	11.937126	0
115700	11.978299	1231
115900	12.019544	1410
116100	12.060860	1
116300	12.102246	0
116500	12.143704	0
116700	12.185232	0
116900	12.226831	0
117100	12.268501	0
117300	12.310242	0
117500	12.352054	0
117700	12.393936	0
117900	12.435890	0
118100	12.477914	0
118300	12.520010	0
118500	12.562176	0
118700	12.604413	0
118900	12.646721	0
119100	12.689100	0
119300	12.731550	0
119500	12.774070	0
119700	12.816662	0
119900	12.859324	0
120100	12.902058	0
120300	12.944862	3
120500	12.987737	1367
120700	13.030683	287
120900	13.073700	0
121100	13.116788	0
121300	13.159946	0
121500	13.203176	0
121700	13.246476	0
121900	13.289847	0
122100	13.333290	0
122300	13.376803	1
122500	13.420387	0
122700	13.464041	0
122900	13.507767	0
123100	13.551564	0
123300	13.595431	0
123500	13.639370	0
123700	13.683379	0
123900	13.727459	1
124100	13.771610	0
124300	13.815832	0
124500	13.860125	0
124700	13.904489	0
124900	13.948923	4
125100	13.993429	2754
125300	14.038005	1383
125500	14.082652	0
125700	14.127370	0
125900	14.172160	0
126100	14.217019	1
126300	14.261950	0
126500	14.306952	0
126700	14.352024	0
126900	14.397168	0
127100	14.442382	0
127300	14.487668	0
127500	14.533024	0
127700	14.578451	0
127900	14.623949	0
128100	14.669517	1
128300	14.715157	0
128500	14.760868	0
128700	14.806649	0
128900	14.852501	1
129100	14.898425	0
129300	14.944419	6
129500	14.990484	347
129700	15.036620	34432
129900	15.082826	26
130100	15.129104	9
130300	15.175452	3
130500	15.221872	2
130700	15.268362	0
130900	15.314923	3
131100	15.361555	2
131300	15.408258	1
131500	15.455032	0
131700	15.501877	0
131900	15.548793	1
132100	15.595779	1
132300	15.642837	0
132500	15.689965	1
132700	15.737164	1
132900	15.784434	0
133100	15.831775	1
133300	15.879187	0
133500	15.926670	0
133700	15.974223	130
133900	16.021848	1648
134100	16.069543	7
134300	16.117309	1
134500	16.165147	1
134700	16.213055	0
134900	16.261033	0
135100	16.309083	0
135300	16.357204	0
135500	16.405396	1
135700	16.453658	0
135900	16.501991	0
136100	16.550396	0
136300	16.598871	0
136500	16.647417	1
136700	16.696034	0
136900	16.744722	0
137100	16.793480	0
137300	16.842310	0
137500	16.891210	0
137700	16.940182	0
137900	16.989224	185
138100	17.038337	661
138300	17.087521	1
138500	17.136776	1
138700	17.186102	0
138900	17.235498	1
139100	17.284966	0
139300	17.334504	1
139500	17.384114	0
139700	17.433794	0
139900	17.483545	0
140100	17.533367	0
140300	17.583260	0
140500	17.633223	0
140700	17.683258	1
140900	17.733364	2
141100	17.783540	0
141300	17.833787	0
141500	17.884105	0
141700	17.934495	0
141900	17.984955	260
142100	18.035485	4963
142300	18.086087	15
142500	18.136760	7
142700	18.187503	1
142900	18.238318	3
143100	18.289203	1
143300	18.340159	0
143500	18.391186	1
143700	18.442284	0
143900	18.493453	0
144100	18.544693	0
144300	18.596003	0
144500	18.647385	2
144700	18.698837	0
144900	18.750360	0
145100	18.801954	0
145300	18.853619	0
145500	18.905355	1
145700	18.957162	1
145900	19.009040	11358
146100	19.060988	69
146300	19.113008	4
146500	19.165098	3
146700	19.217260	4
146900	19.269492	0
147100	19.321795	0
147300	19.374169	1
147500	19.426613	1
147700	19.479129	0
147900	19.531716	1
148100	19.584373	0
148300	19.637101	0
148500	19.689901	0
148700	19.742771	1
148900	19.795712	1
149100	19.848724	0
149300	19.901806	0
149500	19.954960	3
149700	20.008184	14
149900	20.061480	0
150100	20.114846	0
150300	20.168283	0
150500	20.221792	0
150700	20.275370	0
150900	20.329020	1
151100	20.382741	0
151300	20.436533	0
151500	20.490395	0
151700	20.544329	1
151900	20.598333	0
152100	20.652408	0
152300	20.706554	0
152500	20.760771	0
152700	20.815059	1
152900	20.869418	0
153100	20.923847	1
153300	20.978348	2
153500	21.032919	26
153700	21.087561	1
153900	21.142275	0
154100	21.197059	1
154300	21.251914	0
154500	21.306839	0
154700	21.361836	0
154900	21.416904	0
155100	21.472042	0
155300	21.527252	0
155500	21.582532	3
155700	21.637883	7
155900	21.693305	3
156100	21.748798	1
156300	21.804362	2
156500	21.859996	1
156700	21.915702	0
156900	21.971478	2
157100	22.027326	1
157300	22.083244	0
157500	22.139233	0
157700	22.195293	1
157900	22.251424	0
158100	22.307626	1
158300	22.363898	1
158500	22.420242	3
158700	22.476656	2
158900	22.533142	0
159100	22.589698	90
159300	22.646325	11
159500	22.703023	11
159700	22.759792	20
159900	22.816632	4
160100	22.873542	139
160300	22.930524	430
160500	22.987576	1031038
160700	23.044700	14595
160900	23.101894	3729
161100	23.159159	2248
161300	23.216495	1566
161500	23.273902	1100
161700	23.331379	732
161900	23.388928	544
162100	23.446547	428
162300	23.504238	346
162500	23.561999	277
162700	23.619831	205
162900	23.677734	175
163100	23.735708	139
163300	23.793753	116
163500	23.851869	96
163700	23.910055	96
163900	23.968313	712
164100	24.026641	285
164300	24.085041	61
164500	24.143511	62
164700	24.202052	65
164900	24.260664	38
165100	24.319346	37
165300	24.378100	42
165500	24.436925	28
165700	24.495820	31
165900	24.554787	28
166100	24.613824	23
166300	24.672932	25
166500	24.732111	14
166700	24.791361	23
166900	24.850682	6
167100	24.910073	14
167300	24.969536	145
167500	25.029069	726
167700	25.088674	11
167900	25.148349	15
168100	25.208095	9
168300	25.267912	4
168500	25.327800	7
168700	25.387759	10
168900	25.447788	7
169100	25.507889	8
169300	25.568060	11
169500	25.628303	9
169700	25.688616	4
169900	25.749000	9
170100	25.809455	5
170300	25.869981	14
170500	25.930577	84
170700	25.991245	7624
170900	26.051984	359
171100	26.112793	6
171300	26.173673	6
171500	26.234625	5
171700	26.295647	5
171900	26.356740	4
172100	26.417903	4
172300	26.479138	2
172500	26.540444	2
172700	26.601820	11
172900	26.663268	2
173100	26.724786	10
173300	26.786375	6
173500	26.848035	8
173700	26.909766	26
173900	26.971568	3951
174100	27.033441	100730
174300	27.095384	112
174500	27.157399	33
174700	27.219484	16
174900	27.281640	9
175100	27.343867	15
175300	27.406165	14
175500	27.468534	14
175700	27.530974	14
175900	27.593485	14
176100	27.656066	7
176300	27.718719	2
176500	27.781442	6
176700	27.844236	6
176900	27.907102	20
177100	27.970038	2239
177300	28.033044	16924
177500	28.096122	29
177700	28.159271	14
177900	28.222490	8
178100	28.285781	5
178300	28.349142	5
178500	28.412574	7
178700	28.476078	8
178900	28.539651	9
179100	28.603296	31
179300	28.667012	9
179500	28.730799	6
179700	28.794656	9
179900	28.858585	20
180100	28.922584	578
180300	28.986654	48439
180500	29.050795	124828
180700	29.115007	172
180900	29.179290	53
181100	29.243644	42
181300	29.308068	38
181500	29.372564	25
181700	29.437130	16
181900	29.501768	20
182100	29.566476	14
182300	29.631255	22
182500	29.696105	61
182700	29.761026	85
182900	29.826017	72
183100	29.891080	47
183300	29.956214	160
183500	30.021418	11163
183700	30.086693	115
183900	30.152039	13
184100	30.217456	13
184300	30.282944	10
184500	30.348503	11
184700	30.414133	6
184900	30.479833	7
185100	30.545605	36
185300	30.611447	11
185500	30.677360	12
185700	30.743345	8
185900	30.809400	12
186100	30.875526	37
186300	30.941722	264
186500	31.007990	176636
186700	31.074329	591
186900	31.140738	90
187100	31.207218	96
187300	31.273770	50
187500	31.340392	13
187700	31.407085	21
187900	31.473849	55
188100	31.540683	67
188300	31.607589	16
188500	31.674566	10
188700	31.741613	9
188900	31.808731	12
189100	31.875920	5
189300	31.943181	31
189500	32.010512	3393
189700	32.077913	231
189900	32.145386	8
190100	32.212930	5
190300	32.280544	4
190500	32.348230	4
190700	32.415986	6
190900	32.483813	8
191100	32.551711	1
191300	32.619680	3
191500	32.687720	3
191700	32.755831	3
191900	32.824012	7
192100	32.892265	5
192300	32.960588	42
192500	33.028983	3458
192700	33.097448	5
192900	33.165984	3
193100	33.234591	4
193300	33.303269	7
193500	33.372017	11
193700	33.440837	8
193900	33.509727	2
194100	33.578689	1
194300	33.647721	3
194500	33.716824	1
194700	33.785998	2
194900	33.855243	1
195100	33.924559	2
195300	33.993946	25
195500	34.063403	31
195700	34.132932	3
195900	34.202531	2
196100	34.272201	7
196300	34.341942	2
196500	34.411754	0
196700	34.481637	3
196900	34.551591	0
197100	34.621616	5
197300	34.691711	4
197500	34.761878	2
197700	34.832115	3
197900	34.902423	2
198100	34.972802	130
198300	35.043252	11
198500	35.113773	2
198700	35.184365	5
198900	35.255028	8
199100	35.325761	5
199300	35.396566	4
199500	35.467441	1
199700	35.538387	5
199900	35.609404	2
200100	35.680492	3
200300	35.751651	0
200500	35.822881	3
200700	35.894181	2
200900	35.965553	317
201100	36.036995	76
201300	36.108509	1
201500	36.180093	7
201700	36.251748	5
201900	36.323474	4
202100	36.395271	1
202300	36.467138	6
202500	36.539077	4
202700	36.611086	4
202900	36.683167	9
203100	36.755318	6
203300	36.827540	0
203500	36.899833	60
203700	36.972197	2599
203900	37.044632	726
204100	37.117138	8
204300	37.189714	5
204500	37.262362	7
204700	37.335080	7
204900	37.407869	5
205100	37.480730	5
205300	37.553661	6
205500	37.626662	6
205700	37.699735	3
205900	37.772879	2
206100	37.846093	5
206300	37.919379	38
206500	37.992735	7939
206700	38.066163	103
206900	38.139661	13
207100	38.213230	12
