# Binning: 200 channels
# Deadtime Correction: on
Channel	m/z	Intensity
100	0.000394	0
300	0.000667	0
500	0.001013	0
700	0.001430	0
900	0.001919	0
1100	0.002479	0
1300	0.003112	0
1500	0.003816	0
1700	0.004591	0
1900	0.005439	0
2100	0.006358	0
2300	0.007350	0
2500	0.008413	0
2700	0.009547	0
2900	0.010754	0
3100	0.012032	0
3300	0.013382	0
3500	0.014803	0
3700	0.016297	0
3900	0.017862	0
4100	0.019499	0
4300	0.021207	0
4500	0.022988	0
4700	0.024840	0
4900	0.026764	0
5100	0.028760	0
5300	0.030827	0
5500	0.032966	0
5700	0.035177	0
5900	0.037460	0
6100	0.039815	0
6300	0.042241	0
6500	0.044739	0
6700	0.047308	0
6900	0.049950	0
7100	0.052663	0
7300	0.055448	0
7500	0.058305	0
7700	0.061233	0
7900	0.064234	0
8100	0.067306	0
8300	0.070450	0
8500	0.073665	0
8700	0.076952	0
8900	0.080311	0
9100	0.083742	0
9300	0.087245	0
9500	0.090819	0
9700	0.094465	0
9900	0.098183	0
10100	0.101972	0
10300	0.105834	0
10500	0.109767	0
10700	0.113772	0
10900	0.117848	0
11100	0.121997	0
11300	0.126217	0
11500	0.130509	0
11700	0.134872	0
11900	0.139308	0
12100	0.143815	0
12300	0.148394	0
12500	0.153044	0
12700	0.157767	0
12900	0.162561	0
13100	0.167427	0
13300	0.172364	0
13500	0.177374	0
13700	0.182455	0
13900	0.187608	0
14100	0.192832	0
14300	0.198129	0
14500	0.203497	0
14700	0.208937	0
14900	0.214449	0
15100	0.220032	0
15300	0.225687	0
15500	0.231414	0
15700	0.237213	0
15900	0.243083	0
16100	0.249026	0
16300	0.255040	0
16500	0.261125	0
16700	0.267283	0
16900	0.273512	0
17100	0.279813	0
17300	0.286186	0
17500	0.292630	0
17700	0.299147	0
17900	0.305735	0
18100	0.312394	0
18300	0.319126	0
18500	0.325929	0
18700	0.332804	0
18900	0.339751	0
19100	0.346769	0
19300	0.353860	0
19500	0.361022	0
19700	0.368256	0
19900	0.375561	0
20100	0.382939	0
20300	0.390388	0
20500	0.397908	0
20700	0.405501	0
20900	0.413165	0
21100	0.420901	0
21300	0.428709	0
21500	0.436589	0
21700	0.444540	0
21900	0.452563	0
22100	0.460658	0
22300	0.468825	0
22500	0.477063	0
22700	0.485373	0
22900	0.493755	0
23100	0.502209	0
23300	0.510734	0
23500	0.519331	0
23700	0.528000	0
23900	0.536741	0
24100	0.545553	0
24300	0.554438	0
24500	0.563393	0
24700	0.572421	0
24900	0.581521	0
25100	0.590692	0
25300	0.599935	0
25500	0.609249	0
25700	0.618636	0
25900	0.628094	0
26100	0.637624	0
26300	0.647226	0
26500	0.656899	0
26700	0.666644	0
26900	0.676461	0
27100	0.686350	0
27300	0.696311	0
27500	0.706343	0
27700	0.716447	0
27900	0.726623	0
28100	0.736870	0
28300	0.747189	0
28500	0.757580	0
28700	0.768043	0
28900	0.778578	0
29100	0.789184	0
29300	0.799862	0
29500	0.810612	0
29700	0.821433	0
29900	0.832327	0
30100	0.843292	0
30300	0.854329	0
30500	0.865437	0
30700	0.876618	0
30900	0.887870	0
31100	0.899193	0
31300	0.910589	0
31500	0.922056	0
31700	0.933596	0
31900	0.945206	0
32100	0.956889	0
32300	0.968643	0
32500	0.980469	0
32700	0.992367	0
32900	1.004337	1180
33100	1.016378	5
33300	1.028491	0
33500	1.040676	0
33700	1.052933	0
33900	1.065261	0
34100	1.077662	0
34300	1.090134	0
34500	1.102677	0
34700	1.115293	0
34900	1.127980	0
35100	1.140739	0
35300	1.153569	0
35500	1.166472	0
35700	1.179446	0
35900	1.192492	0
36100	1.205610	0
36300	1.218799	0
36500	1.232060	0
36700	1.245393	0
36900	1.258798	0
37100	1.272275	0
37300	1.285823	0
37500	1.299443	0
37700	1.313135	0
37900	1.326898	0
38100	1.340733	0
38300	1.354640	0
38500	1.368619	0
38700	1.382670	0
38900	1.396792	0
39100	1.410986	1
39300	1.425252	0
39500	1.439589	0
39700	1.453999	0
39900	1.468480	0
40100	1.483032	0
40300	1.497657	0
40500	1.512353	0
40700	1.527121	0
40900	1.541961	0
41100	1.556873	0
41300	1.571856	0
41500	1.586911	0
41700	1.602038	0
41900	1.617237	0
42100	1.632507	0
42300	1.647849	0
42500	1.663263	0
42700	1.678749	0
42900	1.694306	0
43100	1.709935	0
43300	1.725636	0
43500	1.741409	0
43700	1.757253	0
43900	1.773169	0
44100	1.789157	0
44300	1.805217	0
44500	1.821348	0
44700	1.837551	0
44900	1.853826	0
45100	1.870173	0
45300	1.886591	0
45500	1.903082	0
45700	1.919644	0
45900	1.936277	0
46100	1.952983	0
46300	1.969760	0
46500	1.986609	0
46700	2.003530	1
46900	2.020522	73
47100	2.037586	0
47300	2.054722	0
47500	2.071930	0
47700	2.089209	0
47900	2.106561	1
48100	2.123984	0
48300	2.141478	0
48500	2.159045	0
48700	2.176683	0
48900	2.194393	0
49100	2.212175	0
49300	2.230029	0
49500	2.247954	0
49700	2.265951	0
49900	2.284020	0
50100	2.302160	0
50300	2.320373	0
50500	2.338657	0
50700	2.357012	0
50900	2.375440	0
51100	2.393939	0
51300	2.412510	0
51500	2.431153	0
51700	2.449868	0
51900	2.468654	0
52100	2.487512	0
52300	2.506442	0
52500	2.525444	0
52700	2.544517	0
52900	2.563662	0
53100	2.582879	0
53300	2.602168	0
53500	2.621528	0
53700	2.640960	0
53900	2.660464	0
54100	2.680040	0
54300	2.699687	0
54500	2.719406	0
54700	2.739197	0
54900	2.759060	0
55100	2.778994	0
55300	2.799001	0
55500	2.819079	0
55700	2.839228	0
55900	2.859450	0
56100	2.879743	0
56300	2.900108	0
56500	2.920545	0
56700	2.941053	0
56900	2.961633	0
57100	2.982285	0
57300	3.003009	0
57500	3.023804	23
57700	3.044672	0
57900	3.065611	0
58100	3.086621	0
58300	3.107704	0
58500	3.128858	0
58700	3.150084	0
58900	3.171382	0
59100	3.192751	0
59300	3.214193	0
59500	3.235706	0
59700	3.257291	0
59900	3.278947	0
60100	3.300675	0
60300	3.322475	0
60500	3.344347	0
60700	3.366291	0
60900	3.388306	0
61100	3.410393	0
61300	3.432552	0
61500	3.454783	0
61700	3.477085	0
61900	3.499459	0
62100	3.521905	0
62300	3.544423	0
62500	3.567012	0
62700	3.589673	0
62900	3.612406	0
63100	3.635210	0
63300	3.658087	0
63500	3.681035	0
63700	3.704055	0
63900	3.727147	0
64100	3.750310	0
64300	3.773545	0
64500	3.796852	0
64700	3.820231	0
64900	3.843681	0
65100	3.867203	0
65300	3.890797	0
65500	3.914463	0
65700	3.938200	0
65900	3.962009	0
66100	3.985890	0
66300	4.009843	0
66500	4.033868	0
66700	4.057964	0
66900	4.082132	0
67100	4.106371	0
67300	4.130683	0
67500	4.155066	0
67700	4.179521	0
67900	4.204048	0
68100	4.228646	0
68300	4.253317	0
68500	4.278059	0
68700	4.302872	0
68900	4.327758	0
69100	4.352715	0
69300	4.377744	0
69500	4.402845	0
69700	4.428017	0
69900	4.453262	0
70100	4.478578	0
70300	4.503966	0
70500	4.529425	0
70700	4.554956	0
70900	4.580560	0
71100	4.606234	0
71300	4.631981	0
71500	4.657799	0
71700	4.683689	0
71900	4.709651	0
72100	4.735685	0
72300	4.761790	0
72500	4.787967	0
72700	4.814216	0
72900	4.840537	0
73100	4.866929	0
73300	4.893393	0
73500	4.919929	0
73700	4.946537	0
73900	4.973216	0
74100	4.999967	0
74300	5.026790	0
74500	5.053685	0
74700	5.080651	0
74900	5.107689	0
75100	5.134799	0
75300	5.161981	0
75500	5.189234	0
75700	5.216560	0
75900	5.243956	0
76100	5.271425	0
76300	5.298966	0
76500	5.326578	0
76700	5.354262	0
76900	5.382017	0
77100	5.409845	0
77300	5.437744	0
77500	5.465715	0
77700	5.493758	0
77900	5.521872	0
78100	5.550059	0
78300	5.578317	0
78500	5.606646	0
78700	5.635048	0
78900	5.663521	0
79100	5.692066	0
79300	5.720683	0
79500	5.749371	0
79700	5.778132	0
79900	5.806964	0
80100	5.835868	0
80300	5.864843	0
80500	5.893890	0
80700	5.923009	0
80900	5.952200	0
81100	5.981463	0
81300	6.010797	130
81500	6.040203	3
81700	6.069681	1
81900	6.099231	0
82100	6.128852	0
82300	6.158545	0
82500	6.188310	0
82700	6.218146	0
82900	6.248055	0
83100	6.278035	0
83300	6.308087	0
83500	6.338210	0
83700	6.368406	0
83900	6.398673	0
84100	6.429012	0
84300	6.459422	0
84500	6.489905	0
84700	6.520459	0
84900	6.551085	0
85100	6.581783	0
85300	6.612552	0
85500	6.643393	0
85700	6.674306	0
85900	6.705291	0
86100	6.736347	0
86300	6.767475	0
86500	6.798675	0
86700	6.829947	0
86900	6.861291	0
87100	6.892706	0
87300	6.924193	0
87500	6.955751	1
87700	6.987382	1
87900	7.019084	1444
88100	7.050858	17
88300	7.082704	1
88500	7.114621	2
88700	7.146611	2
88900	7.178672	2
89100	7.210804	1
89300	7.243009	0
89500	7.275285	1
89700	7.307633	1
89900	7.340053	0
90100	7.372544	2
90300	7.405108	0
90500	7.437743	0
90700	7.470450	0
90900	7.503228	0
91100	7.536078	0
91300	7.569001	0
91500	7.601994	0
91700	7.635060	0
91900	7.668197	0
92100	7.701406	0
92300	7.734687	0
92500	7.768040	0
92700	7.801464	0
92900	7.834960	1
93100	7.868528	0
93300	7.902168	1
93500	7.935879	0
93700	7.969662	0
93900	8.003517	0
94100	8.037444	0
94300	8.071442	0
94500	8.105512	0
94700	8.139654	0
94900	8.173868	0
95100	8.208153	1
95300	8.242510	0
95500	8.276939	0
95700	8.311440	0
95900	8.346012	0
96100	8.380657	0
96300	8.415372	0
96500	8.450160	0
96700	8.485020	0
96900	8.519951	0
97100	8.554954	0
97300	8.590028	0
97500	8.625175	0
97700	8.660393	0
97900	8.695683	0
98100	8.731045	0
98300	8.766478	0
98500	8.801984	0
98700	8.837561	0
98900	8.873209	0
99100	8.908930	0
99300	8.944722	0
99500	8.980586	0
99700	9.016522	0
99900	9.052529	0
100100	9.088609	0
100300	9.124760	0
100500	9.160983	0
100700	9.197277	0
100900	9.233643	0
101100	9.270081	0
101300	9.306591	0
101500	9.343173	0
101700	9.379826	0
101900	9.416551	0
102100	9.453348	0
102300	9.490217	0
102500	9.527157	0
102700	9.564169	0
102900	9.601253	0
103100	9.638408	0
103300	9.675636	0
103500	9.712935	0
103700	9.750306	0
103900	9.787748	0
104100	9.825263	0
104300	9.862849	0
104500	9.900507	0
104700	9.938236	0
104900	9.976038	0
105100	10.013911	2
105300	10.051856	0
105500	10.089873	0
105700	10.127961	0
105900	10.166121	0
106100	10.204353	0
106300	10.242657	0
106500	10.281032	0
106700	10.319479	0
106900	10.357998	0
107100	10.396589	0
107300	10.435252	0
107500	10.473986	0
107700	10.512792	0
107900	10.551669	0
108100	10.590619	0
108300	10.629640	0
108500	10.668733	0
108700	10.707898	0
108900	10.747134	0
109100	10.786443	0
109300	10.825823	0
109500	10.865274	0
109700	10.904798	0
109900	10.944393	0
110100	10.984060	0
110300	11.023799	14
110500	11.063610	0
110700	11.103492	0
110900	11.143446	0
111100	11.183472	0
111300	11.223569	0
111500	11.263739	0
111700	11.303980	0
111900	11.344292	0
112100	11.384677	0
112300	11.425133	0
112500	11.465661	0
112700	11.506261	0
112900	11.546933	0
113100	11.587676	0
113300	11.628491	0
113500	11.669378	0
113700	11.710337	0
113900	11.751367	0
114100	11.792469	0
114300	11.833643	0
114500	11.874889	0
114700	11.916206	0
114900	11.957595	2
115100	11.999056	1762
115300	12.040589	3
115500	12.082193	0
115700	12.123869	0
115900	12.165617	0
116100	12.207437	0
116300	12.249328	0
116500	12.291292	0
116700	12.333327	0
116900	12.375433	0
117100	12.417612	0
117300	12.459862	0
117500	12.502184	0
117700	12.544578	0
117900	12.587043	0
118100	12.629580	0
118300	12.672189	0
118500	12.714870	0
118700	12.757622	0
118900	12.800447	0
119100	12.843343	0
119300	12.886310	0
119500	12.929350	0
119700	12.972461	1
119900	13.015644	774
120100	13.058899	0
120300	13.102226	0
120500	13.145624	0
120700	13.189094	0
120900	13.232636	0
121100	13.276249	0
121300	13.319934	0
121500	13.363692	0
121700	13.407520	0
121900	13.451421	0
122100	13.495393	0
122300	13.539437	0
122500	13.583553	0
122700	13.627741	0
122900	13.672000	0
123100	13.716331	0
123300	13.760734	0
123500	13.805209	0
123700	13.849755	0
123900	13.894373	0
124100	13.939063	0
124300	13.983825	7
124500	14.028658	854
124700	14.073563	1
124900	14.118540	0
125100	14.163589	0
125300	14.208709	0
125500	14.253901	0
125700	14.299165	0
125900	14.344501	0
126100	14.389908	0
126300	14.435387	0
126500	14.480938	0
126700	14.526561	0
126900	14.572255	0
127100	14.618022	1
127300	14.663860	0
127500	14.709769	1
127700	14.755751	0
127900	14.801804	0
128100	14.847929	0
128300	14.894126	0
128500	14.940394	0
128700	14.986734	14
128900	15.033146	2772
129100	15.079630	4
129300	15.126186	2
129500	15.172813	1
129700	15.219512	0
129900	15.266283	0
130100	15.313125	0
130300	15.360039	0
130500	15.407025	0
130700	15.454083	0
130900	15.501213	0
131100	15.548414	0
131300	15.595687	0
131500	15.643032	0
131700	15.690448	0
131900	15.737937	0
132100	15.785497	0
132300	15.833129	0
132500	15.880832	0
132700	15.928607	0
132900	15.976455	47
133100	16.024373	41
133300	16.072364	0
133500	16.120426	0
133700	16.168560	0
133900	16.216766	0
134100	16.265044	0
134300	16.313393	0
134500	16.361814	0
134700	16.410307	0
134900	16.458872	0
135100	16.507508	0
135300	16.556216	0
135500	16.604996	0
135700	16.653848	0
135900	16.702771	0
136100	16.751767	0
136300	16.800833	0
136500	16.849972	0
136700	16.899183	0
136900	16.948465	0
137100	16.997819	15
137300	17.047244	14
137500	17.096742	0
137700	17.146311	0
137900	17.195952	0
138100	17.245665	0
138300	17.295449	0
138500	17.345305	0
138700	17.395233	0
138900	17.445233	0
139100	17.495305	0
139300	17.545448	0
139500	17.595663	0
139700	17.645950	0
139900	17.696308	0
140100	17.746738	0
140300	17.797240	0
140500	17.847814	0
140700	17.898460	0
140900	17.949177	0
141100	17.999966	35
141300	18.050827	309
141500	18.101759	1
141700	18.152764	1
141900	18.203840	0
142100	18.254988	0
142300	18.306207	0
142500	18.357498	0
142700	18.408861	0
142900	18.460296	0
143100	18.511803	0
143300	18.563381	0
143500	18.615031	1
143700	18.666753	0
143900	18.718547	0
144100	18.770412	0
144300	18.822349	0
144500	18.874358	0
144700	18.926439	0
144900	18.978591	6
145100	19.030815	129
145300	19.083111	0
145500	19.135479	0
145700	19.187918	0
145900	19.240429	0
146100	19.293012	0
146300	19.345667	0
146500	19.398393	0
146700	19.451192	0
146900	19.504061	0
147100	19.557003	0
147300	19.610017	0
147500	19.663102	0
147700	19.716259	1
147900	19.769487	0
148100	19.822788	0
148300	19.876160	0
148500	19.929604	0
148700	19.983120	1
148900	20.036707	0
149100	20.090366	0
149300	20.144097	0
149500	20.197900	0
149700	20.251775	0
149900	20.305721	0
150100	20.359739	0
150300	20.413829	0
150500	20.467990	0
150700	20.522224	0
150900	20.576529	0
151100	20.630905	0
151300	20.685354	0
151500	20.739874	0
151700	20.794466	0
151900	20.849130	0
152100	20.903866	0
152300	20.958673	0
152500	21.013552	0
152700	21.068503	1
152900	21.123525	0
153100	21.178620	0
153300	21.233786	0
153500	21.289024	0
153700	21.344333	0
153900	21.399715	0
154100	21.455168	0
154300	21.510693	0
154500	21.566289	2
154700	21.621958	5
154900	21.677698	1
155100	21.733510	0
155300	21.789393	0
155500	21.845349	0
155700	21.901376	0
155900	21.957475	0
156100	22.013645	0
156300	22.069888	1
156500	22.126202	1
156700	22.182588	0
156900	22.239045	0
157100	22.295575	0
157300	22.352176	0
157500	22.408849	1
157700	22.465594	0
157900	22.522410	0
158100	22.579298	50
158300	22.636258	3
158500	22.693290	8
158700	22.750393	7
158900	22.807569	2
159100	22.864816	45
159300	22.922134	143
159500	22.979525	498312
159700	23.036987	10948
159900	23.094521	969
160100	23.152127	510
160300	23.209804	286
160500	23.267554	177
160700	23.325375	156
160900	23.383267	112
161100	23.441232	87
161300	23.499268	73
161500	23.557376	37
161700	23.615556	31
161900	23.673808	32
162100	23.732131	19
162300	23.790526	23
162500	23.848993	11
162700	23.907531	15
162900	23.966142	180
163100	24.024824	222
163300	24.083578	7
163500	24.142403	10
163700	24.201300	6
163900	24.260270	7
164100	24.319310	4
164300	24.378423	8
164500	24.437607	6
164700	24.496864	4
164900	24.556191	6
165100	24.615591	4
165300	24.675062	2
165500	24.734606	2
165700	24.794220	4
165900	24.853907	4
166100	24.913665	7
166300	24.973496	124
166500	25.033398	325
166700	25.093371	2
166900	25.153417	0
167100	25.213534	0
167300	25.273723	1
167500	25.333983	0
167700	25.394316	2
167900	25.454720	0
168100	25.515196	3
168300	25.575744	1
168500	25.636363	2
168700	25.697054	1
168900	25.757817	1
169100	25.818652	0
169300	25.879559	2
169500	25.940537	19
169700	26.001587	1454
169900	26.062709	11
170100	26.123902	0
170300	26.185167	0
170500	26.246504	0
170700	26.307913	0
170900	26.369394	1
171100	26.430946	0
171300	26.492570	0
171500	26.554266	0
171700	26.616033	2
171900	26.677872	1
172100	26.739784	0
172300	26.801766	0
172500	26.863821	1
172700	26.925947	2
172900	26.988145	2395
173100	27.050415	6736
173300	27.112757	5
173500	27.175170	2
173700	27.237655	1
173900	27.300212	1
174100	27.362841	0
174300	27.425541	5
174500	27.488313	1
174700	27.551157	0
174900	27.614072	2
175100	27.677060	1
175300	27.740119	2
175500	27.803250	0
175700	27.866452	2
175900	27.929727	10
176100	27.993073	1325
176300	28.056491	965
176500	28.119981	0
176700	28.183542	2
176900	28.247175	0
177100	28.310880	1
177300	28.374657	1
177500	28.438505	0
177700	28.502425	1
177900	28.566417	1
178100	28.630481	0
178300	28.694616	1
178500	28.758824	0
178700	28.823103	0
178900	28.887453	0
179100	28.951876	128
179300	29.016370	10308
179500	29.080936	974
179700	29.145574	8
179900	29.210283	1
180100	29.275064	2
180300	29.339917	4
180500	29.404842	1
180700	29.469839	0
180900	29.534907	0
181100	29.600047	1
181300	29.665259	0
181500	29.730542	1
181700	29.795898	1
181900	29.861325	0
182100	29.926823	2
182300	29.992394	223
182500	30.058036	812
182700	30.123750	2
182900	30.189536	2
183100	30.255394	1
183300	30.321323	2
183500	30.387324	0
183700	30.453397	1
183900	30.519542	0
184100	30.585758	0
184300	30.652046	0
184500	30.718406	0
184700	30.784837	0
184900	30.851341	0
185100	30.917916	1
185300	30.984563	714
185500	31.051281	574
185700	31.118072	1
185900	31.184934	1
186100	31.251868	8
186300	31.318873	1
186500	31.385951	0
186700	31.453100	1
186900	31.520321	2
187100	31.587614	0
187300	31.654978	0
187500	31.722414	1
187700	31.789922	0
187900	31.857502	0
188100	31.925153	0
188300	31.992876	17
188500	32.060671	25
188700	32.128538	0
188900	32.196477	0
189100	32.264487	0
189300	32.332569	0
189500	32.400722	1
189700	32.468948	0
189900	32.537245	0
190100	32.605614	0
190300	32.674055	0
190500	32.742567	0
190700	32.811152	0
190900	32.879808	1
191100	32.948535	0
191300	33.017335	11
191500	33.086206	0
191700	33.155149	0
191900	33.224164	0
192100	33.293251	0
192300	33.362409	0
192500	33.431639	1
192700	33.500941	0
192900	33.570314	1
193100	33.639760	0
193300	33.709277	0
193500	33.778865	0
193700	33.848526	0
193900	33.918258	1
194100	33.988062	0
194300	34.057938	2
194500	34.127886	0
194700	34.197905	0
194900	34.267996	0
195100	34.338159	0
195300	34.408394	0
195500	34.478700	0
195700	34.549078	0
195900	34.619528	2
196100	34.690050	0
196300	34.760643	0
196500	34.831308	0
196700	34.902045	0
196900	34.972854	80
197100	35.043734	0
197300	35.114687	0
197500	35.185710	0
197700	35.256806	0
197900	35.327974	1
198100	35.399213	0
198300	35.470524	0
198500	35.541906	0
198700	35.613361	0
198900	35.684887	0
199100	35.756485	0
199300	35.828155	0
199500	35.899896	0
199700	35.971709	331
199900	36.043594	22
200100	36.115551	0
200300	36.187580	0
200500	36.259680	3
200700	36.331852	0
200900	36.404096	0
201100	36.476411	1
201300	36.548798	1
201500	36.621257	0
201700	36.693788	0
201900	36.766391	0
202100	36.839065	0
202300	36.911811	24
202500	36.984629	1255
202700	37.057518	50
202900	37.130480	0
203100	37.203513	1
203300	37.276618	2
203500	37.349794	1
203700	37.423042	0
203900	37.496363	0
204100	37.569754	2
204300	37.643218	0
204500	37.716753	0
204700	37.790360	0
204900	37.864039	5
205100	37.937790	31
205300	38.011612	1471
205500	38.085506	5
205700	38.159472	0
205900	38.233510	1
206100	38.307619	0
206300	38.381800	3
206500	38.456053	3
206700	38.530378	1
206900	38.604774	0
207100	38.679242	2
207300	38.753782	3
207500	38.828394	10
207700	38.903077	132
207900	38.977833	62777
208100	39.052660	7698
208300	39.127558	431
208500	39.202529	228
