# Binning: 200 channels
# Deadtime Correction: on
Channel	m/z	Intensity
100	0.000397	0
300	0.000672	0
500	0.001018	0
700	0.001436	0
900	0.001926	0
1100	0.002488	0
1300	0.003121	0
1500	0.003826	0
1700	0.004603	0
1900	0.005452	0
2100	0.006372	0
2300	0.007364	0
2500	0.008428	0
2700	0.009564	0
2900	0.010771	0
3100	0.012050	0
3300	0.013401	0
3500	0.014824	0
3700	0.016318	0
3900	0.017884	0
4100	0.019522	0
4300	0.021232	0
4500	0.023013	0
4700	0.024867	0
4900	0.026791	0
5100	0.028788	0
5300	0.030857	0
5500	0.032997	0
5700	0.035209	0
5900	0.037492	0
6100	0.039848	0
6300	0.042275	0
6500	0.044774	0
6700	0.047344	0
6900	0.049987	0
7100	0.052701	0
7300	0.055487	0
7500	0.058345	0
7700	0.061274	0
7900	0.064275	0
8100	0.067348	0
8300	0.070493	0
8500	0.073709	0
8700	0.076997	0
8900	0.080357	0
9100	0.083789	0
9300	0.087292	0
9500	0.090868	0
9700	0.094515	0
9900	0.098233	0
10100	0.102024	0
10300	0.105886	0
10500	0.109820	0
10700	0.113826	0
10900	0.117903	0
11100	0.122052	0
11300	0.126273	0
11500	0.130566	0
11700	0.134930	0
11900	0.139367	0
12100	0.143874	0
12300	0.148454	0
12500	0.153106	0
12700	0.157829	0
12900	0.162624	0
13100	0.167491	0
13300	0.172429	0
13500	0.177439	0
13700	0.182521	0
13900	0.187675	0
14100	0.192900	0
14300	0.198198	0
14500	0.203567	0
14700	0.209007	0
14900	0.214520	0
15100	0.220104	0
15300	0.225760	0
15500	0.231488	0
15700	0.237287	0
15900	0.243158	0
16100	0.249101	0
16300	0.255116	0
16500	0.261203	0
16700	0.267361	0
16900	0.273591	0
17100	0.279893	0
17300	0.286266	0
17500	0.292711	0
17700	0.299228	0
17900	0.305817	0
18100	0.312478	0
18300	0.319210	0
18500	0.326014	0
18700	0.332890	0
18900	0.339837	0
19100	0.346856	0
19300	0.353948	0
19500	0.361110	0
19700	0.368345	0
19900	0.375651	0
20100	0.383029	1
20300	0.390479	0
20500	0.398000	0
20700	0.405594	0
20900	0.413259	0
21100	0.420995	0
21300	0.428804	0
21500	0.436684	0
21700	0.444636	0
21900	0.452660	0
22100	0.460756	0
22300	0.468923	0
22500	0.477162	0
22700	0.485473	0
22900	0.493855	0
23100	0.502310	0
23300	0.510836	0
23500	0.519433	0
23700	0.528103	0
23900	0.536844	0
24100	0.545657	0
24300	0.554542	0
24500	0.563499	0
24700	0.572527	0
24900	0.581627	0
25100	0.590799	0
25300	0.600042	0
25500	0.609358	0
25700	0.618745	0
25900	0.628204	0
26100	0.637734	0
26300	0.647336	0
26500	0.657011	0
26700	0.666756	0
26900	0.676574	0
27100	0.686463	0
27300	0.696424	0
27500	0.706457	0
27700	0.716562	0
27900	0.726738	0
28100	0.736986	0
28300	0.747306	0
28500	0.757698	0
28700	0.768161	0
28900	0.778696	0
29100	0.789303	0
29300	0.799981	0
29500	0.810732	1
29700	0.821554	0
29900	0.832448	0
30100	0.843413	0
30300	0.854451	0
30500	0.865560	0
30700	0.876741	0
30900	0.887993	0
31100	0.899318	0
31300	0.910714	0
31500	0.922181	0
31700	0.933721	0
31900	0.945332	0
32100	0.957016	0
32300	0.968770	0
32500	0.980597	0
32700	0.992495	1
32900	1.004466	1897
33100	1.016507	7
33300	1.028621	0
33500	1.040806	0
33700	1.053064	0
33900	1.065392	0
34100	1.077793	1
34300	1.090265	0
34500	1.102810	0
34700	1.115425	0
34900	1.128113	0
35100	1.140872	0
35300	1.153704	0
35500	1.166606	0
35700	1.179581	0
35900	1.192627	0
36100	1.205746	0
36300	1.218936	0
36500	1.232197	0
36700	1.245531	0
36900	1.258936	0
37100	1.272413	0
37300	1.285961	0
37500	1.299582	0
37700	1.313274	0
37900	1.327038	0
38100	1.340873	0
38300	1.354781	0
38500	1.368760	0
38700	1.382811	0
38900	1.396934	0
39100	1.411128	0
39300	1.425394	0
39500	1.439732	0
39700	1.454142	0
39900	1.468623	0
40100	1.483176	0
40300	1.497801	0
40500	1.512498	0
40700	1.527266	0
40900	1.542107	0
41100	1.557018	0
41300	1.572002	0
41500	1.587058	0
41700	1.602185	0
41900	1.617384	0
42100	1.632654	0
42300	1.647997	0
42500	1.663411	0
42700	1.678897	0
42900	1.694455	0
43100	1.710084	0
43300	1.725785	0
43500	1.741558	0
43700	1.757403	0
43900	1.773319	0
44100	1.789308	0
44300	1.805368	0
44500	1.821499	0
44700	1.837703	0
44900	1.853978	0
45100	1.870325	0
45300	1.886744	0
45500	1.903234	0
45700	1.919796	0
45900	1.936430	0
46100	1.953136	1
46300	1.969913	0
46500	1.986763	0
46700	2.003684	0
46900	2.020676	97
47100	2.037741	0
47300	2.054877	0
47500	2.072085	0
47700	2.089365	0
47900	2.106716	0
48100	2.124139	0
48300	2.141634	0
48500	2.159201	0
48700	2.176840	0
48900	2.194550	0
49100	2.212332	0
49300	2.230186	0
49500	2.248111	0
49700	2.266108	0
49900	2.284177	0
50100	2.302318	0
50300	2.320531	0
50500	2.338815	0
50700	2.357171	0
50900	2.375599	0
51100	2.394098	0
51300	2.412669	0
51500	2.431312	0
51700	2.450027	0
51900	2.468814	0
52100	2.487672	0
52300	2.506602	0
52500	2.525604	0
52700	2.544677	0
52900	2.563823	0
53100	2.583040	0
53300	2.602328	0
53500	2.621689	0
53700	2.641121	0
53900	2.660625	0
54100	2.680201	0
54300	2.699849	0
54500	2.719568	0
54700	2.739359	0
54900	2.759222	0
55100	2.779156	0
55300	2.799162	0
55500	2.819241	0
55700	2.839390	0
55900	2.859612	0
56100	2.879905	0
56300	2.900270	0
56500	2.920707	0
56700	2.941216	0
56900	2.961796	0
57100	2.982448	0
57300	3.003172	0
57500	3.023967	31
57700	3.044835	0
57900	3.065774	0
58100	3.086784	0
58300	3.107867	0
58500	3.129021	0
58700	3.150247	0
58900	3.171545	0
59100	3.192915	0
59300	3.214356	0
59500	3.235869	0
59700	3.257454	0
59900	3.279111	0
60100	3.300839	0
60300	3.322639	0
60500	3.344511	0
60700	3.366454	0
60900	3.388470	0
61100	3.410557	0
61300	3.432716	0
61500	3.454946	0
61700	3.477249	0
61900	3.499623	0
62100	3.522068	0
62300	3.544586	0
62500	3.567175	0
62700	3.589837	0
62900	3.612569	0
63100	3.635374	0
63300	3.658250	0
63500	3.681198	0
63700	3.704218	0
63900	3.727310	0
64100	3.750473	0
64300	3.773708	0
64500	3.797015	0
64700	3.820394	0
64900	3.843844	0
65100	3.867366	0
65300	3.890960	0
65500	3.914626	0
65700	3.938363	0
65900	3.962172	0
66100	3.986053	0
66300	4.010006	0
66500	4.034030	0
66700	4.058126	0
66900	4.082294	0
67100	4.106534	0
67300	4.130845	0
67500	4.155228	0
67700	4.179683	0
67900	4.204210	0
68100	4.228808	0
68300	4.253478	0
68500	4.278220	0
68700	4.303034	0
68900	4.327919	0
69100	4.352876	0
69300	4.377905	0
69500	4.403006	0
69700	4.428178	0
69900	4.453423	0
70100	4.478738	0
70300	4.504126	0
70500	4.529585	0
70700	4.555117	0
70900	4.580720	0
71100	4.606394	0
71300	4.632141	0
71500	4.657959	0
71700	4.683849	0
71900	4.709810	0
72100	4.735844	0
72300	4.761949	0
72500	4.788126	0
72700	4.814375	0
72900	4.840695	0
73100	4.867087	0
73300	4.893551	0
73500	4.920087	0
73700	4.946694	0
73900	4.973373	0
74100	5.000124	0
74300	5.026947	0
74500	5.053841	0
74700	5.080808	0
74900	5.107846	0
75100	5.134955	0
75300	5.162137	0
75500	5.189390	0
75700	5.216715	0
75900	5.244112	0
76100	5.271580	0
76300	5.299120	0
76500	5.326732	0
76700	5.354416	0
76900	5.382171	0
77100	5.409999	0
77300	5.437897	0
77500	5.465868	0
77700	5.493911	0
77900	5.522025	0
78100	5.550211	0
78300	5.578469	0
78500	5.606798	0
78700	5.635199	0
78900	5.663672	0
79100	5.692217	0
79300	5.720833	0
79500	5.749522	0
79700	5.778282	0
79900	5.807113	0
80100	5.836017	0
80300	5.864992	0
80500	5.894039	0
80700	5.923158	0
80900	5.952348	0
81100	5.981610	0
81300	6.010944	192
81500	6.040350	7
81700	6.069828	1
81900	6.099377	0
82100	6.128998	0
82300	6.158691	0
82500	6.188455	0
82700	6.218291	0
82900	6.248199	0
83100	6.278179	0
83300	6.308231	0
83500	6.338354	0
83700	6.368549	0
83900	6.398816	0
84100	6.429154	0
84300	6.459564	0
84500	6.490047	0
84700	6.520600	0
84900	6.551226	0
85100	6.581923	0
85300	6.612692	0
85500	6.643533	0
85700	6.674445	0
85900	6.705430	0
86100	6.736486	0
86300	6.767613	0
86500	6.798813	1
86700	6.830084	0
86900	6.861427	0
87100	6.892842	0
87300	6.924329	0
87500	6.955887	0
87700	6.987517	5
87900	7.019219	2461
88100	7.050992	27
88300	7.082838	4
88500	7.114755	1
88700	7.146743	2
88900	7.178804	0
89100	7.210936	2
89300	7.243140	0
89500	7.275416	0
89700	7.307764	0
89900	7.340183	0
90100	7.372674	0
90300	7.405237	0
90500	7.437871	0
90700	7.470578	0
90900	7.503356	0
91100	7.536206	0
91300	7.569127	0
91500	7.602120	0
91700	7.635186	0
91900	7.668322	0
92100	7.701531	0
92300	7.734811	0
92500	7.768163	0
92700	7.801587	0
92900	7.835083	0
93100	7.868650	0
93300	7.902289	0
93500	7.936000	0
93700	7.969783	0
93900	8.003637	0
94100	8.037563	0
94300	8.071561	0
94500	8.105630	0
94700	8.139772	0
94900	8.173985	0
95100	8.208270	0
95300	8.242626	0
95500	8.277055	0
95700	8.311555	0
95900	8.346127	0
96100	8.380770	0
96300	8.415486	0
96500	8.450273	0
96700	8.485132	0
96900	8.520062	0
97100	8.555064	0
97300	8.590139	0
97500	8.625284	0
97700	8.660502	0
97900	8.695791	0
98100	8.731153	0
98300	8.766585	0
98500	8.802090	0
98700	8.837666	0
98900	8.873315	0
99100	8.909034	0
99300	8.944826	0
99500	8.980689	0
99700	9.016625	0
99900	9.052631	0
100100	9.088710	0
100300	9.124860	0
100500	9.161083	0
100700	9.197376	0
100900	9.233742	0
101100	9.270180	0
101300	9.306689	0
101500	9.343270	0
101700	9.379922	0
101900	9.416647	0
102100	9.453443	0
102300	9.490311	0
102500	9.527250	0
102700	9.564262	0
102900	9.601345	0
103100	9.638500	0
103300	9.675726	0
103500	9.713025	0
103700	9.750395	0
103900	9.787837	0
104100	9.825351	0
104300	9.862936	0
104500	9.900593	0
104700	9.938322	0
104900	9.976123	0
105100	10.013995	7
105300	10.051939	0
105500	10.089955	0
105700	10.128043	0
105900	10.166202	0
106100	10.204434	0
106300	10.242736	0
106500	10.281111	0
106700	10.319558	0
106900	10.358076	0
107100	10.396666	0
107300	10.435327	0
107500	10.474061	0
107700	10.512866	0
107900	10.551743	0
108100	10.590692	0
108300	10.629712	0
108500	10.668804	0
108700	10.707968	0
108900	10.747204	0
109100	10.786511	0
109300	10.825891	0
109500	10.865342	0
109700	10.904864	0
109900	10.944459	0
110100	10.984125	1
110300	11.023863	27
110500	11.063673	0
110700	11.103554	0
110900	11.143507	0
111100	11.183532	0
111300	11.223629	0
111500	11.263797	0
111700	11.304038	0
111900	11.344350	0
112100	11.384733	0
112300	11.425189	0
112500	11.465716	0
112700	11.506315	0
112900	11.546986	0
113100	11.587728	0
113300	11.628543	0
113500	11.669429	0
113700	11.710386	0
113900	11.751416	0
114100	11.792517	0
114300	11.833690	0
114500	11.874935	0
114700	11.916251	0
114900	11.957639	1
115100	11.999099	2437
115300	12.040631	2
115500	12.082235	0
115700	12.123910	0
115900	12.165657	1
116100	12.207476	0
116300	12.249366	1
116500	12.291329	0
116700	12.333363	0
116900	12.375468	0
117100	12.417646	0
117300	12.459895	0
117500	12.502216	0
117700	12.544609	0
117900	12.587073	0
118100	12.629610	0
118300	12.672218	0
118500	12.714897	0
118700	12.757649	0
118900	12.800472	0
119100	12.843367	0
119300	12.886334	0
119500	12.929373	0
119700	12.972483	2
119900	13.015665	1191
120100	13.058919	2
120300	13.102244	0
120500	13.145642	0
120700	13.189111	0
120900	13.232651	0
121100	13.276264	0
121300	13.319948	0
121500	13.363704	0
121700	13.407532	0
121900	13.451432	0
122100	13.495403	0
122300	13.539446	0
122500	13.583561	0
122700	13.627747	0
122900	13.672006	0
123100	13.716336	0
123300	13.760738	0
123500	13.805211	0
123700	13.849756	0
123900	13.894373	0
124100	13.939062	0
124300	13.983823	12
124500	14.028655	1311
124700	14.073559	0
124900	14.118535	0
125100	14.163583	0
125300	14.208702	0
125500	14.253893	0
125700	14.299156	0
125900	14.344490	0
126100	14.389897	0
126300	14.435375	0
126500	14.480925	0
126700	14.526546	0
126900	14.572240	0
127100	14.618005	0
127300	14.663842	0
127500	14.709750	1
127700	14.755730	1
127900	14.801783	0
128100	14.847906	0
128300	14.894102	0
128500	14.940369	0
128700	14.986708	14
128900	15.033119	4570
129100	15.079602	5
129300	15.126156	0
129500	15.172782	0
129700	15.219480	0
129900	15.266250	0
130100	15.313091	0
130300	15.360004	0
130500	15.406989	0
130700	15.454046	1
130900	15.501174	0
131100	15.548374	0
131300	15.595646	0
131500	15.642990	0
131700	15.690405	1
131900	15.737892	0
132100	15.785451	0
132300	15.833082	0
132500	15.880784	0
132700	15.928558	0
132900	15.976404	52
133100	16.024322	80
133300	16.072311	0
133500	16.120372	0
133700	16.168505	0
133900	16.216710	0
134100	16.264986	0
134300	16.313335	0
134500	16.361754	0
134700	16.410246	0
134900	16.458809	0
135100	16.507445	0
135300	16.556152	0
135500	16.604930	0
135700	16.653781	0
135900	16.702703	0
136100	16.751697	0
136300	16.800762	1
136500	16.849900	0
136700	16.899109	0
136900	16.948390	0
137100	16.997742	60
137300	17.047167	29
137500	17.096663	0
137700	17.146231	0
137900	17.195871	0
138100	17.245582	0
138300	17.295365	0
138500	17.345220	0
138700	17.395147	0
138900	17.445145	0
139100	17.495215	0
139300	17.545357	0
139500	17.595571	0
139700	17.645857	0
139900	17.696214	0
140100	17.746643	0
140300	17.797143	0
140500	17.847716	0
140700	17.898360	0
140900	17.949076	0
141100	17.999864	58
141300	18.050723	546
141500	18.101654	1
141700	18.152657	0
141900	18.203732	0
142100	18.254878	0
142300	18.306097	1
142500	18.357387	0
142700	18.408748	0
142900	18.460182	0
143100	18.511687	0
143300	18.563264	1
143500	18.614913	0
143700	18.666633	0
143900	18.718425	0
144100	18.770289	0
144300	18.822225	0
144500	18.874232	0
144700	18.926312	0
144900	18.978463	5
145100	19.030685	202
145300	19.082980	0
145500	19.135346	0
145700	19.187784	0
145900	19.240294	0
146100	19.292875	0
146300	19.345529	0
146500	19.398254	0
146700	19.451050	0
146900	19.503919	0
147100	19.556859	0
147300	19.609871	0
147500	19.662955	1
147700	19.716110	0
147900	19.769338	0
148100	19.822637	0
148300	19.876007	0
148500	19.929450	1
148700	19.982964	1
148900	20.036550	1
149100	20.090208	0
149300	20.143937	0
149500	20.197739	0
149700	20.251612	0
149900	20.305556	0
150100	20.359573	0
150300	20.413661	0
150500	20.467821	0
150700	20.522053	0
150900	20.576356	0
151100	20.630732	0
151300	20.685179	0
151500	20.739698	2
151700	20.794288	0
151900	20.848950	1
152100	20.903684	0
152300	20.958490	0
152500	21.013368	4
152700	21.068317	0
152900	21.123338	0
153100	21.178431	0
153300	21.233595	0
153500	21.288832	0
153700	21.344140	0
153900	21.399520	1
154100	21.454971	0
154300	21.510494	0
154500	21.566089	1
154700	21.621756	5
154900	21.677495	0
155100	21.733305	0
155300	21.789187	0
155500	21.845141	0
155700	21.901167	0
155900	21.957264	1
156100	22.013433	0
156300	22.069674	0
156500	22.125986	0
156700	22.182371	0
156900	22.238827	0
157100	22.295354	0
157300	22.351954	0
157500	22.408625	0
157700	22.465368	0
157900	22.522183	0
158100	22.579070	101
158300	22.636028	5
158500	22.693058	18
158700	22.750160	7
158900	22.807334	3
159100	22.864579	81
159300	22.921896	221
159500	22.979285	816136
159700	23.036746	13647
159900	23.094278	1276
160100	23.151882	701
160300	23.209558	466
160500	23.267305	305
160700	23.325125	202
160900	23.383016	158
161100	23.440979	112
161300	23.499013	83
161500	23.557120	56
161700	23.615298	45
161900	23.673548	49
162100	23.731869	27
162300	23.790263	31
162500	23.848728	26
162700	23.907265	17
162900	23.965873	319
163100	24.024554	381
163300	24.083306	18
163500	24.142130	17
163700	24.201025	8
163900	24.259993	11
164100	24.319032	8
164300	24.378143	3
164500	24.437325	7
164700	24.496580	6
164900	24.555906	6
165100	24.615304	3
165300	24.674773	3
165500	24.734315	4
165700	24.793928	3
165900	24.853613	6
166100	24.913369	4
166300	24.973198	180
166500	25.033098	494
166700	25.093070	3
166900	25.153113	5
167100	25.213229	1
167300	25.273416	4
167500	25.333675	0
167700	25.394005	4
167900	25.454408	2
168100	25.514882	0
168300	25.575428	3
168500	25.636046	1
168700	25.696735	4
168900	25.757496	3
169100	25.818329	4
169300	25.879234	3
169500	25.940210	31
169700	26.001258	2299
169900	26.062378	10
170100	26.123570	2
170300	26.184833	0
170500	26.246168	1
170700	26.307575	0
170900	26.369054	0
171100	26.430605	2
171300	26.492227	1
171500	26.553921	2
171700	26.615686	2
171900	26.677524	3
172100	26.739433	2
172300	26.801414	1
172500	26.863467	0
172700	26.925591	8
172900	26.987787	3141
173100	27.050055	10578
173300	27.112395	6
173500	27.174806	3
173700	27.237289	1
173900	27.299844	2
174100	27.362471	1
174300	27.425170	1
174500	27.487940	4
174700	27.550782	1
174900	27.613695	0
175100	27.676681	3
175300	27.739738	1
175500	27.802867	0
175700	27.866068	3
175900	27.929340	10
176100	27.992684	2110
176300	28.056100	1537
176500	28.119588	3
176700	28.183148	3
176900	28.246779	2
177100	28.310482	1
177300	28.374257	0
177500	28.438103	0
177700	28.502021	0
177900	28.566011	2
178100	28.630073	1
178300	28.694206	0
178500	28.758412	0
178700	28.822689	0
178900	28.887037	1
179100	28.951458	171
179300	29.015950	14356
179500	29.080514	606
179700	29.145150	4
179900	29.209857	4
180100	29.274637	0
180300	29.339488	5
180500	29.404410	2
180700	29.469405	0
180900	29.534471	1
181100	29.599609	4
181300	29.664819	0
181500	29.730100	2
181700	29.795454	0
181900	29.860879	0
182100	29.926375	0
182300	29.991944	334
182500	30.057584	1222
182700	30.123296	2
182900	30.189080	1
183100	30.254936	0
183300	30.320863	0
183500	30.386862	0
183700	30.452933	1
183900	30.519075	0
184100	30.585289	1
184300	30.651575	2
184500	30.717933	1
184700	30.784363	0
184900	30.850864	1
185100	30.917437	0
185300	30.984082	869
185500	31.050798	959
185700	31.117587	0
185900	31.184447	2
186100	31.251379	8
186300	31.318382	1
186500	31.385457	2
186700	31.452604	0
186900	31.519823	2
187100	31.587114	1
187300	31.654476	1
187500	31.721910	1
187700	31.789416	1
187900	31.856993	0
188100	31.924643	0
188300	31.992364	21
188500	32.060157	51
188700	32.128021	0
188900	32.195958	0
189100	32.263966	0
189300	32.332045	1
189500	32.400197	0
189700	32.468420	0
189900	32.536715	0
190100	32.605082	0
190300	32.673521	0
190500	32.742031	2
190700	32.810613	0
190900	32.879267	0
191100	32.947993	0
191300	33.016790	20
191500	33.085659	0
191700	33.154600	0
191900	33.223612	0
192100	33.292697	0
192300	33.361853	0
192500	33.431081	4
192700	33.500380	0
192900	33.569752	0
193100	33.639195	0
193300	33.708710	0
193500	33.778296	0
193700	33.847955	0
193900	33.917685	0
194100	33.987487	0
194300	34.057360	1
194500	34.127306	0
194700	34.197323	0
194900	34.267411	0
195100	34.337572	0
195300	34.407804	0
195500	34.478109	1
195700	34.548484	0
195900	34.618932	0
196100	34.689451	0
196300	34.760043	0
196500	34.830705	1
196700	34.901440	1
196900	34.972246	110
197100	35.043125	4
197300	35.114074	0
197500	35.185096	0
197700	35.256189	1
197900	35.327355	0
198100	35.398591	0
198300	35.469900	0
198500	35.541280	0
198700	35.612733	0
198900	35.684257	0
199100	35.755852	0
199300	35.827520	0
199500	35.899259	1
199700	35.971070	391
199900	36.042952	33
200100	36.114907	1
200300	36.186933	0
200500	36.259031	0
200700	36.331200	0
200900	36.403442	0
201100	36.475755	0
201300	36.548140	0
201500	36.620597	0
201700	36.693125	0
201900	36.765725	2
202100	36.838397	0
202300	36.911141	31
202500	36.983956	1863
202700	37.056843	43
202900	37.129802	0
203100	37.202833	3
203300	37.275935	1
203500	37.349109	2
203700	37.422355	0
203900	37.495673	1
204100	37.569062	2
204300	37.642524	0
204500	37.716057	0
204700	37.789661	0
204900	37.863338	0
205100	37.937086	42
205300	38.010906	2208
205500	38.084798	5
205700	38.158761	0
205900	38.232796	2
206100	38.306903	1
206300	38.381082	3
206500	38.455332	10
206700	38.529654	1
206900	38.604048	3
207100	38.678514	4
207300	38.753052	0
207500	38.827661	16
207700	38.902342	214
207900	38.977094	107655
208100	39.051919	10485
208300	39.126815	636
