6,7987,0.4204348055
6.0380845,7779,0.4094857083
6.076169,7884,0.4150128968
6.1142535,7949,0.4184344897
6.152338,7638,0.4020634837
6.1904225,7600,0.4000631679
6.228507,7631,0.4016950045
6.2665915,7628,0.4015370848
6.304676,7567,0.3983260515
6.3427605,7625,0.4013791651
6.380845,7599,0.400010528
6.4189295,7717,0.4062220351
6.457014,7598,0.3999578881
6.4950985,7545,0.3971679739
6.533183,7448,0.3920619045
6.5712675,7538,0.3967994947
6.609352,7526,0.396167816
6.6474365,7369,0.3879033532
6.685521,7398,0.38942991
6.7236055,7350,0.3869031952
6.76169,7224,0.380270569
6.7997745,7040,0.3705848292
6.837859,6822,0.3591093331
6.8759435,7008,0.3689003527
6.914028,6767,0.3562141391
6.9521125,6615,0.3482128757
6.990197,6658,0.350476391
7.0282815,6654,0.3502658314
7.066366,6496,0.3419487287
7.1044505,6346,0.3340527452
7.142535,6688,0.3520555877
7.1806195,6541,0.3443175238
7.218704,6490,0.3416328894
7.2567885,6445,0.3392640943
7.294873,6180,0.3253145233
7.3329575,6359,0.3347370637
7.371042,6182,0.3254198031
7.4091265,6122,0.3222614097
7.447211,6205,0.3266305206
7.4852955,6071,0.3195767753
7.52338,6112,0.3217350108
7.5614645,5984,0.3149971048
7.599549,6148,0.3236300468
7.6376335,5987,0.3151550245
7.675718,5999,0.3157867032
7.7138025,5963,0.3138916671
7.751887,5835,0.3071537611
7.7899715,5976,0.3145759857
7.828056,5900,0.310575354
7.8661405,5766,0.3035216087
7.904225,5745,0.302416171
7.9423095,5819,0.3063115229
7.980394,5789,0.3047323262
8.0184785,5655,0.2976785808
8.056563,5830,0.3068905617
8.0946475,5634,0.2965731431
8.132732,5631,0.2964152235
8.1708165,5788,0.3046796863
8.208901,5636,0.2966784229
8.2469855,5720,0.3011001737
8.28507,5526,0.290888035
8.3231545,5598,0.2946781071
8.361239,5595,0.2945201874
8.3993235,5526,0.290888035
8.437408,5511,0.2900984366
8.4754925,5437,0.2862030847
8.513577,5328,0.2804653366
8.5516615,5376,0.2829920514
8.589746,5476,0.2882560404
8.6278305,5548,0.2920461125
8.665915,5325,0.280307417
8.7039995,5306,0.279307259
8.742084,5336,0.2808864558
8.7801685,5144,0.2707795968
8.818253,5253,0.2765173448
8.8563375,5436,0.2861504448
8.894422,5465,0.2876770016
8.9325065,5212,0.2743591093
8.970591,5215,0.274517029
9.0086755,5212,0.2743591093
9.04676,5123,0.2696741591
9.0848445,5189,0.2731483919
9.122929,5184,0.2728851924
9.1610135,5135,0.2703058378
9.199098,5117,0.2693583197
9.2371825,5149,0.2710427962
9.275267,5200,0.2737274306
9.3133515,5026,0.2645680897
9.351436,5019,0.2641996105
9.3895205,5037,0.2651471285
9.427605,5057,0.2661999263
9.4656895,4979,0.2620940148
9.503774,4902,0.2580407433
9.5418585,4963,0.2612517766
9.579943,5041,0.2653576881
9.6180275,4902,0.2580407433
9.656112,4922,0.2590935411
9.6941965,4992,0.2627783334
9.732281,4813,0.253355793
9.7703655,4782,0.2517239564
9.80845,4937,0.2598831394
9.8465345,4834,0.2544612307
9.884619,4750,0.2500394799
9.9227035,4818,0.2536189925
9.960788,4771,0.2511449176
9.9988725,4832,0.2543559509
10.036957,4714,0.2481444439
10.0750415,4844,0.2549876296
10.113126,4732,0.2490919619
10.1512105,4737,0.2493551613
10.189295,4731,0.249039322
10.2273795,4630,0.2437226931
10.265464,4569,0.2405116597
10.3035485,4535,0.2387219035
10.341633,4509,0.2373532663
10.3797175,4543,0.2391430226
10.417802,4630,0.2437226931
10.4558865,4507,0.2372479865
10.493971,4590,0.2416170974
10.5320555,4541,0.2390377428
10.57014,4457,0.234615992
10.6082245,4495,0.2366163078
10.646309,4535,0.2387219035
10.6843935,4459,0.2347212718
10.722478,4482,0.2359319893
10.7605625,4256,0.224035374
10.798647,4359,0.2294572827
10.8367315,4241,0.2232457756
10.874816,4316,0.2271937674
10.9129005,4316,0.2271937674
10.950985,4223,0.2222982576
10.9890695,4319,0.2273516871
11.027154,4327,0.2277728062
11.0652385,4360,0.2295099226
11.103323,4095,0.2155603516
11.1414075,4212,0.2217192188
11.179492,4222,0.2222456177
11.2175765,4323,0.2275622467
11.255661,4235,0.2229299363
11.2937455,4186,0.2203505817
11.33183,4137,0.217771227
11.3699145,4295,0.2260883297
11.407999,4131,0.2174553877
11.4460835,4036,0.2124545981
11.484168,3949,0.2078749276
11.5222525,3916,0.2061378112
11.560337,4033,0.2122966784
11.5984215,3979,0.2094541243
11.636506,4077,0.2146128336
11.6745905,4015,0.2113491604
11.712675,3950,0.2079275675
11.7507595,4002,0.2106648418
11.788844,3868,0.2036110965
11.8269285,3851,0.2027162184
11.865013,3891,0.204821814
11.9030975,3831,0.2016634205
11.941182,3828,0.2015055009
11.9792665,3883,0.2044006948
12.017351,3875,0.2039795757
12.0554355,3769,0.1983997473
12.09352,3753,0.1975575091
12.1316045,3771,0.1985050271
12.169689,3764,0.1981365479
12.2077735,3707,0.1951360741
12.245858,3761,0.1979786282
12.2839425,3646,0.1919250408
12.322027,3541,0.1863978523
12.3601115,3631,0.1911354424
12.398196,3596,0.1892930463
12.4362805,3534,0.1860293731
12.474365,3514,0.1849765752
12.5124495,3546,0.1866610517
12.550534,3581,0.1885034479
12.5886185,3484,0.1833973785
12.626703,3407,0.179344107
12.6647875,3383,0.1780807496
12.702872,3385,0.1781860294
12.7409565,3432,0.1806601042
12.779041,3457,0.1819761015
12.8171255,3352,0.176448913
12.85521,3449,0.1815549824
12.8932945,3306,0.174027478
12.931379,3275,0.1723956414
12.9694635,3429,0.1805021846
13.007548,3328,0.1751855556
13.0456325,3246,0.1708690846
13.083717,3240,0.1705532452
13.1218015,3247,0.1709217245
13.159886,3210,0.1689740485
13.1979705,3159,0.1662894141
13.236055,3118,0.1641311786
13.2741395,3121,0.1642890983
13.312224,3142,0.165394536
13.3503085,3179,0.1673422119
13.388393,3212,0.1690793283
13.4264775,3123,0.1643943781
13.464562,3138,0.1651839764
13.5026465,3057,0.1609201453
13.540731,3027,0.1593409486
13.5788155,3136,0.1650786966
13.6169,2998,0.1578143917
13.6549845,3066,0.1613939043
13.693069,3040,0.1600252671
13.7311535,3070,0.1616044639
13.769238,3059,0.1610254251
13.8073225,3063,0.1612359846
13.845407,3123,0.1643943781
13.8834915,3039,0.1599726273
13.921576,2914,0.1533926409
13.9596605,2938,0.1546559983
13.997745,3055,0.1608148655
14.0358295,3030,0.1594988682
14.073914,2993,0.1575511923
14.1119985,3100,0.1631836606
14.150083,3061,0.1611307048
14.1881675,2908,0.1530768016
14.226252,2970,0.1563404748
14.2643365,2909,0.1531294415
14.302421,2909,0.1531294415
14.3405055,3014,0.15865663
14.37859,2998,0.1578143917
14.4166745,2970,0.1563404748
14.454759,3036,0.1598147076
14.4928435,2891,0.1521819235
14.530928,2912,0.1532873612
14.5690125,3007,0.1582881508
14.607097,2819,0.1483918513
14.6451815,2902,0.1527609623
14.683266,2877,0.151444965
14.7213505,2958,0.1557087961
14.759435,2908,0.1530768016
14.7975195,2935,0.1544980786
14.835604,2870,0.1510764858
14.8736885,2875,0.1513396852
14.911773,2846,0.1498131284
14.9498575,2800,0.1473916934
14.987942,2984,0.1570774333
15.0260265,2981,0.1569195136
15.064111,2923,0.1538664
15.1021955,2982,0.1569721535
15.14028,2767,0.145654577
15.1783645,2907,0.1530241617
15.216449,2850,0.150023688
15.2545335,2778,0.1462336158
15.292618,2773,0.1459704164
15.3307025,2863,0.1507080065
15.368787,2846,0.1498131284
15.4068715,2886,0.151918724
15.444956,2924,0.1539190398
15.4830405,2885,0.1518660841
15.521125,2762,0.1453913776
15.5592095,2889,0.1520766437
15.597294,2846,0.1498131284
15.6353785,2831,0.14902353
15.673463,2825,0.1487076907
15.7115475,2933,0.1543927989
15.749632,2836,0.1492867295
15.7877165,2810,0.1479180923
15.825801,2799,0.1473390535
15.8638855,2845,0.1497604885
15.90197,2929,0.1541822393
15.9400545,2753,0.1449176186
15.978139,2865,0.1508132863
16.0162235,2843,0.1496552087
16.054308,2812,0.1480233721
16.0923925,2817,0.1482865716
16.130477,2861,0.1506027267
16.1685615,2812,0.1480233721
16.206646,2855,0.1502868874
16.2447305,2857,0.1503921672
16.282815,2867,0.1509185661
16.3208995,2807,0.1477601727
16.358984,2864,0.1507606464
16.3970685,2844,0.1497078486
16.435153,2872,0.1511817655
16.4732375,2794,0.1470758541
16.511322,2770,0.1458124967
16.5494065,2838,0.1493920093
16.587491,2748,0.1446544191
16.6255755,2813,0.148076012
16.66366,2776,0.1461283361
16.7017445,2852,0.1501289677
16.739829,2784,0.1465494552
16.7779135,2817,0.1482865716
16.815998,2859,0.150497447
16.8540825,2901,0.1527083224
16.892167,2760,0.1452860978
16.9302515,2724,0.1433910617
16.968336,2754,0.1449702585
17.0064205,2754,0.1449702585
17.044505,2761,0.1453387377
17.0825895,2816,0.1482339317
17.120674,2781,0.1463915355
17.1587585,2807,0.1477601727
17.196843,2724,0.1433910617
17.2349275,2709,0.1426014634
17.273012,2719,0.1431278623
17.3110965,2802,0.1474969732
17.349181,2642,0.1390745907
17.3872655,2802,0.1474969732
17.42535,2749,0.144707059
17.4634345,2783,0.1464968153
17.501519,2770,0.1458124967
17.5396035,2842,0.1496025688
17.577688,2687,0.1414433858
17.6157725,2697,0.1419697847
17.653857,2707,0.1424961836
17.6919415,2682,0.1411801863
17.730026,2705,0.1423909038
17.7681105,2676,0.140864347
17.806195,2741,0.1442859399
17.8442795,2730,0.1437069011
17.882364,2695,0.1418645049
17.9204485,2599,0.1368110754
17.958533,2725,0.1434437016
17.9966175,2625,0.1381797126
18.034702,2684,0.1412854661
18.0727865,2798,0.1472864136
18.110871,2692,0.1417065853
18.1489555,2715,0.1429173027
18.18704,2786,0.146654735
18.2251245,2756,0.1450755382
18.263209,2700,0.1421277044
18.3012935,2621,0.137969153
18.339378,2696,0.1419171448
18.3774625,2732,0.1438121809
18.415547,2683,0.1412328262
18.4536315,2680,0.1410749066
18.491716,2706,0.1424435437
18.5298005,2631,0.1384955519
18.567885,2650,0.1394957098
18.6059695,2553,0.1343896405
18.644054,2664,0.1402326683
18.6821385,2700,0.1421277044
18.720223,2684,0.1412854661
18.7583075,2606,0.1371795547
18.796392,2722,0.143285782
18.8344765,2686,0.1413907459
18.872561,2596,0.1366531558
18.9106455,2722,0.143285782
18.94873,2592,0.1364425962
18.9868145,2662,0.1401273885
19.024899,2682,0.1411801863
19.0629835,2642,0.1390745907
19.101068,2693,0.1417592251
19.1391525,2550,0.1342317208
19.177237,2746,0.1445491393
19.2153215,2652,0.1396009896
19.253406,2651,0.1395483497
19.2914905,2646,0.1392851503
19.329575,2591,0.1363899563
19.3676595,2703,0.142285624
19.405744,2650,0.1394957098
19.4438285,2615,0.1376533137
19.481913,2607,0.1372321946
19.5199975,2672,0.1406537874
19.558082,2648,0.1393904301
19.5961665,2528,0.1330736432
19.634251,2698,0.1420224246
19.6723355,2555,0.1344949203
19.71042,2630,0.138442912
19.7485045,2733,0.1438648208
19.786589,2632,0.1385481918
19.8246735,2584,0.1360214771
19.862758,2604,0.1370742749
19.9008425,2630,0.138442912
19.938927,2598,0.1367584355
19.9770115,2623,0.1380744328
20.015096,2595,0.1366005159
20.0531805,2559,0.1347054798
20.091265,2610,0.1373901142
20.1293495,2607,0.1372321946
20.167434,2577,0.1356529978
20.2055185,2617,0.1377585935
20.243603,2626,0.1382323525
20.2816875,2516,0.1324419645
20.319772,2604,0.1370742749
20.3578565,2558,0.1346528399
20.395941,2612,0.137495394
20.4340255,2535,0.1334421224
20.47211,2604,0.1370742749
20.5101945,2499,0.1315470864
20.548279,2550,0.1342317208
20.5863635,2581,0.1358635574
20.624448,2602,0.1369689951
20.6625325,2557,0.1346002
20.700617,2582,0.1359161973
20.7387015,2587,0.1361793967
20.776786,2571,0.1353371585
20.8148705,2471,0.1300731694
20.852955,2625,0.1381797126
20.8910395,2594,0.136547876
20.929124,2461,0.1295467705
20.9672085,2570,0.1352845186
21.005293,2622,0.1380217929
21.0433775,2545,0.1339685213
21.081462,2520,0.1326525241
21.1195465,2565,0.1350213192
21.157631,2543,0.1338632416
21.1957155,2542,0.1338106017
21.2338,2561,0.1348107596
21.2718845,2561,0.1348107596
21.309969,2570,0.1352845186
21.3480535,2540,0.1337053219
21.386138,2578,0.1357056377
21.4242225,2528,0.1330736432
21.462307,2522,0.1327578039
21.5003915,2526,0.1329683634
21.538476,2593,0.1364952361
21.5765605,2552,0.1343370006
21.614645,2678,0.1409696268
21.6527295,2555,0.1344949203
21.690814,2606,0.1371795547
21.7288985,2583,0.1359688372
21.766983,2542,0.1338106017
21.8050675,2549,0.1341790809
21.843152,2529,0.1331262831
21.8812365,2563,0.1349160394
21.919321,2523,0.1328104438
21.9574055,2598,0.1367584355
21.99549,2638,0.1388640312
22.0335745,2568,0.1351792388
22.071659,2641,0.1390219508
22.1097435,2579,0.1357582776
22.147828,2577,0.1356529978
22.1859125,2579,0.1357582776
22.223997,2640,0.1389693109
22.2620815,2525,0.1329157235
22.300166,2550,0.1342317208
22.3382505,2519,0.1325998842
22.376335,2559,0.1347054798
22.4144195,2491,0.1311259673
22.452504,2431,0.1279675738
22.4905885,2548,0.134126441
22.528673,2507,0.1319682055
22.5667575,2493,0.131231247
22.604842,2555,0.1344949203
22.6429265,2513,0.1322840448
22.681011,2589,0.1362846765
22.7190955,2467,0.1298626099
22.75718,2551,0.1342843607
22.7952645,2568,0.1351792388
22.833349,2472,0.1301258093
22.8714335,2510,0.1321261252
22.909518,2427,0.1277570143
22.9476025,2575,0.1355477181
22.985687,2482,0.1306522082
23.0237715,2516,0.1324419645
23.061856,2449,0.1289150919
23.0999405,2466,0.12980997
23.138025,2486,0.1308627678
23.1761095,2423,0.1275464547
23.214194,2393,0.125967258
23.2522785,2487,0.1309154077
23.290363,2460,0.1294941307
23.3284475,2404,0.1265462968
23.366532,2355,0.1239669421
23.4046165,2513,0.1322840448
23.442701,2470,0.1300205296
23.4807855,2525,0.1329157235
23.51887,2552,0.1343370006
23.5569545,2483,0.1307048481
23.595039,2578,0.1357056377
23.6331235,2448,0.128862452
23.671208,2429,0.127862294
23.7092925,2453,0.1291256514
23.747377,2511,0.1321787651
23.7854615,2498,0.1314944465
23.823546,2445,0.1287045323
23.8616305,2414,0.1270726957
23.899715,2483,0.1307048481
23.9377995,2432,0.1280202137
23.975884,2477,0.1303890088
24.0139685,2538,0.1336000421
24.052053,2424,0.1275990946
24.0901375,2450,0.1289677317
24.128222,2447,0.1288098121
24.1663065,2430,0.1279149339
24.204391,2311,0.121650787
24.2424755,2362,0.1243354214
24.28056,2431,0.1279675738
24.3186445,2317,0.1219666263
24.356729,2404,0.1265462968
24.3948135,2549,0.1341790809
24.432898,2425,0.1276517345
24.4709825,2455,0.1292309312
24.509067,2451,0.1290203716
24.5471515,2410,0.1268621361
24.585236,2502,0.1317050061
24.6233205,2495,0.1313365268
24.661405,2470,0.1300205296
24.6994895,2568,0.1351792388
24.737574,2439,0.128388693
24.7756585,2432,0.1280202137
24.813743,2384,0.125493499
24.8518275,2449,0.1289150919
24.889912,2422,0.1274938148
24.9279965,2464,0.1297046902
24.966081,2468,0.1299152498
25.0041655,2460,0.1294941307
25.04225,2416,0.1271779755
25.0803345,2434,0.1281254935
25.118419,2474,0.1302310891
25.1565035,2408,0.1267568563
25.194588,2517,0.1324946044
25.2326725,2427,0.1277570143
25.270757,2384,0.125493499
25.3088415,2439,0.128388693
25.346926,2370,0.1247565405
25.3850105,2363,0.1243880613
25.423095,2428,0.1278096542
25.4611795,2450,0.1289677317
25.499264,2391,0.1258619782
25.5373485,2459,0.1294414908
25.575433,2374,0.1249671001
25.6135175,2371,0.1248091804
25.651602,2461,0.1295467705
25.6896865,2409,0.1268094962
25.727771,2377,0.1251250197
25.7658555,2426,0.1277043744
25.80394,2392,0.1259146181
25.8420245,2334,0.1228615044
25.880109,2365,0.1244933411
25.9181935,2361,0.1242827815
25.956278,2446,0.1287571722
25.9943625,2416,0.1271779755
26.032447,2337,0.1230194241
26.0705315,2398,0.1262304574
26.108616,2442,0.1285466126
26.1467005,2387,0.1256514186
26.184785,2350,0.1237037427
26.2228695,2427,0.1277570143
26.260954,2421,0.1274411749
26.2990385,2409,0.1268094962
26.337123,2432,0.1280202137
26.3752075,2479,0.1304942886
26.413292,2449,0.1289150919
26.4513765,2388,0.1257040585
26.489461,2412,0.1269674159
26.5275455,2439,0.128388693
26.56563,2410,0.1268621361
26.6037145,2346,0.1234931831
26.641799,2458,0.1293888509
26.6798835,2444,0.1286518924
26.717968,2462,0.1295994104
26.7560525,2523,0.1328104438
26.794137,2513,0.1322840448
26.8322215,2369,0.1247039006
26.870306,2410,0.1268621361
26.9083905,2469,0.1299678897
26.946475,2493,0.131231247
26.9845595,2468,0.1299152498
27.022644,2508,0.1320208454
27.0607285,2432,0.1280202137
27.098813,2443,0.1285992525
27.1368975,2462,0.1295994104
27.174982,2391,0.1258619782
27.2130665,2497,0.1314418066
27.251151,2388,0.1257040585
27.2892355,2434,0.1281254935
27.32732,2471,0.1300731694
27.3654045,2461,0.1295467705
27.403489,2346,0.1234931831
27.4415735,2466,0.12980997
27.479658,2376,0.1250723798
27.5177425,2401,0.1263883771
27.555827,2396,0.1261251777
27.5939115,2457,0.129336211
27.631996,2464,0.1297046902
27.6700805,2387,0.1256514186
27.708165,2497,0.1314418066
27.7462495,2494,0.1312838869
27.784334,2436,0.1282307733
27.8224185,2386,0.1255987788
27.860503,2415,0.1271253356
27.8985875,2463,0.1296520503
27.936672,2467,0.1298626099
27.9747565,2451,0.1290203716
28.012841,2392,0.1259146181
28.0509255,2472,0.1301258093
28.08901,2515,0.1323893246
28.1270945,2459,0.1294414908
28.165179,2482,0.1306522082
28.2032635,2479,0.1304942886
28.241348,2512,0.132231405
28.2794325,2453,0.1291256514
28.317517,2355,0.1239669421
28.3556015,2397,0.1261778176
28.393686,2492,0.1311786071
28.4317705,2400,0.1263357372
28.469855,2426,0.1277043744
28.5079395,2447,0.1288098121
28.546024,2412,0.1269674159
28.5841085,2415,0.1271253356
28.622193,2423,0.1275464547
28.6602775,2560,0.1347581197
28.698362,2459,0.1294414908
28.7364465,2443,0.1285992525
28.774531,2543,0.1338632416
28.8126155,2462,0.1295994104
28.8507,2495,0.1313365268
28.8887845,2399,0.1262830973
28.926869,2397,0.1261778176
28.9649535,2494,0.1312838869
29.003038,2692,0.1417065853
29.0411225,2719,0.1431278623
29.079207,2716,0.1429699426
29.1172915,2648,0.1393904301
29.155376,2625,0.1381797126
29.1934605,2553,0.1343896405
29.231545,2502,0.1317050061
29.2696295,2547,0.1340738011
29.307714,2490,0.1310733274
29.3457985,2517,0.1324946044
29.383883,2572,0.1353897984
29.4219675,2371,0.1248091804
29.460052,2448,0.128862452
29.4981365,2452,0.1290730115
29.536221,2439,0.128388693
29.5743055,2366,0.1245459809
29.61239,2436,0.1282307733
29.6504745,2431,0.1279675738
29.688559,2461,0.1295467705
29.7266435,2559,0.1347054798
29.764728,2466,0.12980997
29.8028125,2494,0.1312838869
29.840897,2415,0.1271253356
29.8789815,2499,0.1315470864
29.917066,2413,0.1270200558
29.9551505,2448,0.128862452
29.993235,2364,0.1244407012
30.0313195,2429,0.127862294
30.069404,2497,0.1314418066
30.1074885,2489,0.1310206875
30.145573,2415,0.1271253356
30.1836575,2411,0.126914776
30.221742,2510,0.1321261252
30.2598265,2432,0.1280202137
30.297911,2513,0.1322840448
30.3359955,2454,0.1291782913
30.37408,2521,0.132705164
30.4121645,2450,0.1289677317
30.450249,2518,0.1325472443
30.4883335,2520,0.1326525241
30.526418,2502,0.1317050061
30.5645025,2570,0.1352845186
30.602587,2429,0.127862294
30.6406715,2580,0.1358109175
30.678756,2425,0.1276517345
30.7168405,2462,0.1295994104
30.754925,2514,0.1323366847
30.7930095,2549,0.1341790809
30.831094,2454,0.1291782913
30.8691785,2488,0.1309680476
30.907263,2490,0.1310733274
30.9453475,2405,0.1265989367
30.983432,2465,0.1297573301
31.0215165,2453,0.1291256514
31.059601,2431,0.1279675738
31.0976855,2607,0.1372321946
31.13577,2493,0.131231247
31.1738545,2453,0.1291256514
31.211939,2477,0.1303890088
31.2500235,2462,0.1295994104
31.288108,2559,0.1347054798
31.3261925,2444,0.1286518924
31.364277,2627,0.1382849924
31.4023615,2486,0.1308627678
31.440446,2434,0.1281254935
31.4785305,2476,0.1303363689
31.516615,2483,0.1307048481
31.5546995,2549,0.1341790809
31.592784,2502,0.1317050061
31.6308685,2488,0.1309680476
31.668953,2491,0.1311259673
31.7070375,2540,0.1337053219
31.745122,2516,0.1324419645
31.7832065,2616,0.1377059536
31.821291,2560,0.1347581197
31.8593755,2531,0.1332315629
31.89746,2458,0.1293888509
31.9355445,2563,0.1349160394
31.973629,2547,0.1340738011
32.0117135,2511,0.1321787651
32.049798,2483,0.1307048481
32.0878825,2558,0.1346528399
32.125967,2614,0.1376006738
32.1640515,2436,0.1282307733
32.202136,2532,0.1332842028
32.2402205,2525,0.1329157235
32.278305,2690,0.1416013055
32.3163895,2548,0.134126441
32.354474,2556,0.1345475601
32.3925585,2554,0.1344422804
32.430643,2532,0.1332842028
32.4687275,2582,0.1359161973
32.506812,2592,0.1364425962
32.5448965,2511,0.1321787651
32.582981,2572,0.1353897984
32.6210655,2595,0.1366005159
32.65915,2566,0.135073959
32.6972345,2606,0.1371795547
32.735319,2598,0.1367584355
32.7734035,2581,0.1358635574
32.811488,2629,0.1383902721
32.8495725,2510,0.1321261252
32.887657,2649,0.13944307
32.9257415,2538,0.1336000421
32.963826,2566,0.135073959
33.0019105,2650,0.1394957098
33.039995,2682,0.1411801863
33.0780795,2702,0.1422329842
33.116164,2622,0.1380217929
33.1542485,2603,0.137021635
33.192333,2736,0.1440227404
33.2304175,2798,0.1472864136
33.268502,2584,0.1360214771
33.3065865,2576,0.135600358
33.344671,2551,0.1342843607
33.3827555,2590,0.1363373164
33.42084,2631,0.1384955519
33.4589245,2638,0.1388640312
33.497009,2662,0.1401273885
33.5350935,2710,0.1426541033
33.573178,2643,0.1391272306
33.6112625,2630,0.138442912
33.649347,2575,0.1355477181
33.6874315,2713,0.142812023
33.725516,2692,0.1417065853
33.7636005,2648,0.1393904301
33.801685,2746,0.1445491393
33.8397695,2736,0.1440227404
33.877854,2523,0.1328104438
33.9159385,2761,0.1453387377
33.954023,2740,0.1442333
33.9921075,2659,0.1399694689
34.030192,2670,0.1405485077
34.0682765,2742,0.1443385798
34.106361,2754,0.1449702585
34.1444455,2658,0.139916829
34.18253,2760,0.1452860978
34.2206145,2722,0.143285782
34.258699,2669,0.1404958678
34.2967835,2760,0.1452860978
34.334868,2733,0.1438648208
34.3729525,2752,0.1448649787
34.411037,2841,0.1495499289
34.4491215,2778,0.1462336158
34.487206,2834,0.1491814497
34.5252905,2833,0.1491288098
34.563375,2802,0.1474969732
34.6014595,2808,0.1478128125
34.639544,2696,0.1419171448
34.6776285,2799,0.1473390535
34.715713,2785,0.1466020951
34.7537975,2758,0.145180818
34.791882,2852,0.1501289677
34.8299665,2897,0.1524977628
34.868051,2832,0.1490761699
34.9061355,2931,0.1542875191
34.94422,2843,0.1496552087
34.9823045,2835,0.1492340896
35.020389,2954,0.1554982366
35.0584735,2909,0.1531294415
35.096558,2910,0.1531820814
35.1346425,2960,0.1558140759
35.172727,2896,0.1524451229
35.2108115,2842,0.1496025688
35.248896,2872,0.1511817655
35.2869805,2967,0.1561825551
35.325065,2957,0.1556561562
35.3631495,2933,0.1543927989
35.401234,2978,0.1567615939
35.4393185,2920,0.1537084803
35.477403,2982,0.1569721535
35.5154875,3097,0.1630257409
35.553572,2911,0.1532347213
35.5916565,3088,0.1625519819
35.629741,2930,0.1542348792
35.6678255,3061,0.1611307048
35.70591,3190,0.1679212507
35.7439945,3068,0.1614991841
35.782079,3042,0.1601305469
35.8201635,3119,0.1641838185
35.858248,3069,0.161551824
35.8963325,3098,0.1630783808
35.934417,3219,0.1694478075
35.9725015,3093,0.1628151813
36.010586,3178,0.167289572
36.0486705,3200,0.1684476496
36.086755,3250,0.1710796442
36.1248395,3235,0.1702900458
36.162924,3248,0.1709743644
36.2010085,3259,0.1715534032
36.239093,3158,0.1662367742
36.2771775,3310,0.1742380376
36.315262,3309,0.1741853977
36.3533465,3344,0.1760277939
36.391431,3290,0.1731852398
36.4295155,3384,0.1781333895
36.4676,3310,0.1742380376
36.5056845,3405,0.1792388272
36.543769,3377,0.1777649102
36.5818535,3422,0.1801337053
36.619938,3428,0.1804495447
36.6580225,3436,0.1808706638
36.696107,3588,0.1888719271
36.7341915,3609,0.1899773648
36.772276,3588,0.1888719271
36.8103605,3541,0.1863978523
36.848445,3663,0.1928199189
36.8865295,3598,0.1893983261
36.924614,3671,0.1932410381
36.9626985,3798,0.1999263042
37.000783,3744,0.1970837501
37.0388675,3785,0.1992419856
37.076952,3789,0.1994525451
37.1150365,3854,0.202874138
37.153121,3905,0.2055587724
37.1912055,4009,0.2110333211
37.22929,4064,0.213928515
37.2673745,4098,0.2157182713
37.305459,4198,0.2209822604
37.3435435,4261,0.2242985735
37.381628,4213,0.2217718587
37.4197125,4385,0.2308259199
37.457797,4384,0.23077328
37.4958815,4533,0.2386166237
37.533966,4672,0.2459335685
37.5720505,4537,0.2388271832
37.610135,4733,0.2491446018
37.6482195,4931,0.2595673001
37.686304,4916,0.2587777017
37.7243885,4903,0.2580933832
37.762473,5023,0.26441017
37.8005575,5258,0.2767805443
37.838642,5147,0.2709375164
37.8767265,5345,0.2813602148
37.914811,5339,0.2810443754
37.9528955,5524,0.2907827552
37.99098,5503,0.2896773175
38.0290645,5822,0.3064694425
38.067149,5885,0.3097857556
38.1052335,5763,0.303363689
38.143318,6022,0.3169974206
38.1814025,6168,0.3246828447
38.219487,6205,0.3266305206
38.2575715,6358,0.3346844239
38.295656,6368,0.3352108228
38.3337405,6548,0.3446860031
38.371825,6558,0.345212402
38.4099095,6554,0.3450018424
38.447994,6734,0.3544770227
38.4860785,6760,0.3558456598
38.524163,6580,0.3463704795
38.5622475,7062,0.3717429068
38.600332,7060,0.371637627
38.6384165,7192,0.3785860925
38.676501,7322,0.3854292783
38.7145855,7465,0.3929567826
38.75267,7497,0.3946412591
38.7907545,7725,0.4066431542
38.828839,7823,0.4118018635
38.8669235,7951,0.4185397694
38.905008,8181,0.4306469443
38.9430925,8290,0.4363846923
38.981177,8408,0.4425961994
39.0192615,8541,0.4495973048
39.057346,8669,0.4563352108
39.0954305,9103,0.4791809233
39.133515,9470,0.4984997631
39.1715995,9484,0.4992367216
39.209684,9592,0.5049218298
39.2477685,10073,0.5302416171
39.285853,10221,0.5380323209
39.3239375,10389,0.5468758225
39.362022,10614,0.5587197979
39.4001065,10931,0.5754066432
39.438191,11316,0.595673001
39.4762755,11727,0.617307996
39.51436,12051,0.6343633205
39.5524445,12467,0.656261515
39.590529,12926,0.6804232247
39.6286135,13516,0.7114807601
39.666698,14040,0.7390640627
39.7047825,14524,0.7645417698
39.742867,15052,0.7923356319
39.7809515,15702,0.8265515608
39.819036,16400,0.8632942043
39.8571205,17083,0.8992472496
39.895205,17372,0.9144601779
39.9332895,17612,0.9270937516
39.971374,18046,0.9499394641
40.0094585,18523,0.9750486919
40.047543,18530,0.9754171711
40.0856275,18683,0.9834710744
40.123712,18995,0.9998947202
40.1617965,18997,1
40.199881,18813,0.9903142601
40.2379655,18816,0.9904721798
40.27605,18588,0.9784702848
40.3141345,18575,0.9777859662
40.352219,18151,0.9554666526
40.3903035,18048,0.9500447439
40.428388,17820,0.9380428489
40.4664725,17816,0.9378322893
40.504557,17628,0.9279359899
40.5426415,17501,0.9212507238
40.580726,17336,0.9125651419
40.6188105,17024,0.896141496
40.656895,16975,0.8935621414
40.6949795,16664,0.8771911354
40.733064,16664,0.8771911354
40.7711485,16507,0.8689266726
40.809233,16249,0.8553455809
40.8473175,15950,0.8396062536
40.885402,15940,0.8390798547
40.9234865,15782,0.830762752
40.961571,15568,0.8194978154
40.9996555,15163,0.7981786598
41.03774,15148,0.7973890614
41.0758245,14819,0.7800705375
41.113909,14781,0.7780702216
41.1519935,14580,0.7674896036
41.190078,14216,0.7483286835
41.2281625,14270,0.7511712376
41.266247,14147,0.744696531
41.3043315,13743,0.7234300153
41.342416,13676,0.7199031426
41.3805005,13378,0.7042164552
41.418585,13264,0.6982155077
41.4566695,12955,0.6819497815
41.494754,12749,0.6711059641
41.5328385,12511,0.6585776702
41.570923,12472,0.6565247144
41.6090075,12135,0.6387850713
41.647092,11766,0.6193609517
41.6851765,11666,0.6140969627
41.723261,11715,0.6166763173
41.7613455,11544,0.607674896
41.79943,11255,0.5924619677
41.8375145,11230,0.5911459704
41.875599,10947,0.5762488814
41.9136835,10510,0.5532452492
41.951768,10682,0.5622993104
41.9898525,10519,0.5537190083
42.027937,10253,0.5397167974
42.0660215,10264,0.5402958362
42.104106,10151,0.5343475286
42.1421905,10003,0.5265568248
42.180275,9708,0.5110280571
42.2183595,9611,0.5059219877
42.256444,9394,0.4944991314
42.2945285,9462,0.498078644
42.332613,9331,0.4911828183
42.3706975,9381,0.4938148129
42.408782,9045,0.4761278097
42.4468665,9063,0.4770753277
42.484951,9137,0.4809706796
42.5230355,8968,0.4720745381
42.56112,8842,0.4654419119
42.5992045,8964,0.4718639785
42.637289,8848,0.4657577512
42.6753735,8724,0.4592304048
42.713458,8775,0.4619150392
42.7515425,8691,0.4574932884
42.789627,8597,0.4525451387
42.8277115,8529,0.4489656262
42.865796,8710,0.4584934463
42.9038805,8632,0.4543875349
42.941965,8486,0.4467021109
42.9800495,8667,0.456229931
43.018134,8492,0.4470179502
43.0562185,8434,0.4439648366
43.094303,8435,0.4440174764
43.1323875,8729,0.4594936043
43.170472,8520,0.4484918671
43.2085565,8526,0.4488077065
43.246641,8528,0.4489129863
43.2847255,8497,0.4472811497
43.32281,8645,0.4550718535
43.3608945,8490,0.4469126704
43.398979,8530,0.449018266
43.4370635,8513,0.4481233879
43.475148,8639,0.4547560141
43.5132325,8612,0.4533347371
43.551317,8627,0.4541243354
43.5894015,8633,0.4544401748
43.627486,8646,0.4551244933
43.6655705,8565,0.4508606622
43.703655,8517,0.4483339475
43.7417395,8678,0.4568089698
43.779824,8457,0.445175554
43.8179085,8601,0.4527556983
43.855993,8346,0.4393325262
43.8940775,8438,0.4441753961
43.932162,8199,0.4315944623
43.9702465,8130,0.4279623098
44.008331,8195,0.4313839027
44.0464155,8123,0.4275938306
44.0845,7978,0.4199610465
44.1225845,7827,0.412012423
44.160669,7813,0.4112754645
44.1987535,7703,0.4054850766
44.236838,7812,0.4112228247
44.2749225,7617,0.400958046
44.313007,7685,0.4045375586
44.3510915,7532,0.3964836553
44.389176,7431,0.3911670264
44.4272605,7400,0.3895351898
44.465345,7533,0.3965362952
44.5034295,7210,0.3795336106
44.541514,7273,0.3828499237
44.5795985,7439,0.3915881455
44.617683,7336,0.3861662368
44.6557675,7400,0.3895351898
44.693852,7391,0.3890614308
44.7319365,7258,0.3820603253
44.770021,7301,0.3843238406
44.8081055,7332,0.3859556772
44.84619,7418,0.3904827078
44.8842745,7629,0.4015897247
44.922359,7238,0.3810075275
44.9604435,7356,0.3872190346
44.998528,7322,0.3854292783
45.0366125,7215,0.37979681
45.074697,7278,0.3831131231
45.1127815,7225,0.3803232089
45.150866,7410,0.3900615887
45.1889505,7373,0.3881139127
45.227035,7458,0.3925883034
45.2651195,7403,0.3896931094
45.303204,7544,0.397115334
45.3412885,7635,0.401905564
45.379373,7477,0.3935884613
45.4174575,7622,0.4012212455
45.455542,7659,0.4031689214
45.4936265,7672,0.40385324
45.531711,7646,0.4024846028
45.5697955,7780,0.4095383482
45.60788,7759,0.4084329105
45.6459645,7742,0.4075380323
45.684049,7967,0.4193820077
45.7221335,7925,0.4171711323
45.760218,8003,0.4212770437
45.7983025,7907,0.4162236143
45.836387,8183,0.430752224
45.8744715,8154,0.4292256672
45.912556,8267,0.4351739748
45.9506405,8439,0.444228036
45.988725,8390,0.4416486814
46.0268095,8489,0.4468600305
46.064894,8675,0.4566510502
46.1029785,8863,0.4665473496
46.141063,9120,0.4800758014
46.1791475,8996,0.473548455
46.217232,9184,0.4834447544
46.2553165,9375,0.4934989735
46.293401,9474,0.4987103227
46.3314855,9730,0.5121861347
46.36957,9813,0.5165552456
46.4076545,9893,0.5207664368
46.445739,10115,0.5324524925
46.4838235,10210,0.5374532821
46.521908,10268,0.5405063957
46.5599925,10234,0.5387166395
46.598077,10067,0.5299257778
46.6361615,10301,0.5422435121
46.674246,9998,0.5262936253
46.7123305,10087,0.5309785756
46.750415,9946,0.523556351
46.7884995,10097,0.5315049745
46.826584,9713,0.5112912565
46.8646685,9493,0.4997104806
46.902753,9444,0.497131126
46.9408375,9211,0.4848660315
46.978922,9069,0.477391167
47.0170065,9169,0.4826551561
47.055091,8791,0.4627572775
47.0931755,8740,0.460072643
47.13126,8403,0.4423329999
47.1693445,8409,0.4426488393
47.207429,8124,0.4276464705
47.2455135,8134,0.4281728694
47.283598,8002,0.4212244039
47.3216825,7787,0.4099068274
47.359767,7731,0.4069589935
47.3978515,7671,0.4038006001
47.435936,7599,0.400010528
47.4740205,7512,0.3954308575
47.512105,7271,0.3827446439
47.5501895,7119,0.3747433805
47.588274,6940,0.3653208401
47.6263585,6960,0.3663736379
47.664443,6778,0.3567931779
47.7025275,6794,0.3576354161
47.740612,6594,0.347107438
47.7786965,6632,0.3491077539
47.816781,6362,0.3348949834
47.8548655,6416,0.3377375375
47.89295,6271,0.3301047534
47.9310345,6247,0.328841396
47.969119,6016,0.3166815813
48.0072035,6022,0.3169974206
48.045288,5945,0.3129441491
48.0833725,5872,0.3091014371
48.121457,5855,0.3082065589
48.1595415,5587,0.2940990683
48.197626,5693,0.2996788967
48.2357105,5506,0.2898352371
48.273795,5544,0.291835553
48.3118795,5345,0.2813602148
48.349964,5328,0.2804653366
48.3880485,5162,0.2717271148
48.426133,5247,0.2762015055
48.4642175,5083,0.2675685635
48.502302,4996,0.262988893
48.5403865,4922,0.2590935411
48.578471,5028,0.2646733695
48.6165555,4774,0.2513028373
48.65464,4815,0.2534610728
48.6927245,4732,0.2490919619
48.730809,4754,0.2502500395
48.7688935,4656,0.2450913302
48.806978,4670,0.2458282887
48.8450625,4548,0.239406222
48.883147,4596,0.2419329368
48.9212315,4487,0.2361951887
48.959316,4470,0.2353003106
48.9974005,4447,0.2340895931
49.035485,4317,0.2272464073
49.0735695,4358,0.2294046428
49.111654,4266,0.2245617729
49.1497385,4216,0.2219297784
49.187823,4151,0.2185081855
49.2259075,4169,0.2194557035
49.263992,4152,0.2185608254
49.3020765,4128,0.217297468
49.340161,4060,0.2137179555
49.3782455,4035,0.2124019582
49.41633,3984,0.2097173238
49.4544145,3990,0.2100331631
49.492499,3909,0.205769332
49.5305835,3819,0.2010317419
49.568668,3900,0.205295573
49.6067525,3846,0.2024530189
49.644837,3878,0.2041374954
49.6829215,3841,0.2021898194
49.721006,3842,0.2022424593
49.7590905,3742,0.1969784703
49.797175,3721,0.1958730326
49.8352595,3636,0.1913986419
49.873344,3735,0.1966099911
49.9114285,3708,0.195188714
49.949513,3715,0.1955571932
49.9875975,3622,0.1906616834
50.025682,3643,0.1917671211
50.0637665,3621,0.1906090435
50.101851,3509,0.1847133758
50.1399355,3592,0.1890824867
50.17802,3605,0.1897668053
50.2161045,3468,0.1825551403
50.254189,3521,0.1853450545
50.2922735,3541,0.1863978523
50.330358,3548,0.1867663315
50.3684425,3323,0.1749223562
50.406527,3399,0.1789229878
50.4446115,3385,0.1781860294
50.482696,3372,0.1775017108
50.5207805,3366,0.1771858715
50.558865,3455,0.1818708217
50.5969495,3341,0.1758698742
50.635034,3237,0.1703953256
50.6731185,3331,0.1753434753
50.711203,3360,0.1768700321
50.7492875,3312,0.1743433174
50.787372,3415,0.1797652261
50.8254565,3318,0.1746591567
50.863541,3262,0.1717113228
50.9016255,3300,0.1737116387
50.93971,3195,0.1681844502
50.9777945,3283,0.1728167605
51.015879,3251,0.171132284
51.0539635,3185,0.1676580513
51.092048,3162,0.1664473338
51.1301325,3235,0.1702900458
51.168217,3226,0.1698162868
51.2063015,3216,0.1692898879
51.244386,3209,0.1689214086
51.2824705,3149,0.1657630152
51.320555,3181,0.1674474917
51.3586395,3180,0.1673948518
51.396724,3156,0.1661314944
51.4348085,3182,0.1675001316
51.472893,3200,0.1684476496
51.5109775,3205,0.1687108491
51.549062,3086,0.1624467021
51.5871465,3069,0.161551824
51.625231,3169,0.166815813
51.6633155,3094,0.1628678212
51.7014,3116,0.1640258988
51.7394845,3085,0.1623940622
51.777569,3129,0.1647102174
51.8156535,3065,0.1613412644
51.853738,3010,0.1584460704
51.8918225,2997,0.1577617519
51.929907,3014,0.15865663
51.9679915,2929,0.1541822393
52.006076,2969,0.1562878349
52.0441605,3035,0.1597620677
52.082245,3025,0.1592356688
52.1203295,3029,0.1594462284
52.158414,2952,0.1553929568
52.1964985,2996,0.157709112
52.234583,2937,0.1546033584
52.2726675,2925,0.1539716797
52.310752,3062,0.1611833447
52.3488365,2949,0.1552350371
52.386921,2995,0.1576564721
52.4250055,2953,0.1554455967
52.46309,2995,0.1576564721
52.5011745,2899,0.1526030426
52.539259,2923,0.1538664
52.5773435,2858,0.1504448071
52.615428,2874,0.1512870453
52.6535125,2964,0.1560246355
52.691597,2958,0.1557087961
52.7296815,2837,0.1493393694
52.767766,2975,0.1566036743
52.8058505,2925,0.1539716797
52.843935,2946,0.1550771174
52.8820195,2876,0.1513923251
52.920104,2978,0.1567615939
52.9581885,2863,0.1507080065
52.996273,2901,0.1527083224
53.0343575,2912,0.1532873612
53.072442,2886,0.151918724
53.1105265,2925,0.1539716797
53.148611,2838,0.1493920093
53.1866955,2850,0.150023688
53.22478,2907,0.1530241617
53.2628645,2860,0.1505500869
53.300949,2800,0.1473916934
53.3390335,2832,0.1490761699
53.377118,2872,0.1511817655
53.4152025,2796,0.1471811339
53.453287,2866,0.1508659262
53.4913715,2925,0.1539716797
53.529456,2825,0.1487076907
53.5675405,2814,0.1481286519
53.605625,2908,0.1530768016
53.6437095,2806,0.1477075328
53.681794,2775,0.1460756962
53.7198785,2732,0.1438121809
53.757963,2899,0.1526030426
53.7960475,2882,0.1517081644
53.834132,2952,0.1553929568
53.8722165,2787,0.1467073748
53.910301,2730,0.1437069011
53.9483855,2833,0.1491288098
53.98647,2897,0.1524977628
54.0245545,2845,0.1497604885
54.062639,2858,0.1504448071
54.1007235,2859,0.150497447
54.138808,2899,0.1526030426
54.1768925,2761,0.1453387377
54.214977,2758,0.145180818
54.2530615,2882,0.1517081644
54.291146,2831,0.14902353
54.3292305,2888,0.1520240038
54.367315,2887,0.1519713639
54.4053995,2878,0.1514976049
54.443484,2862,0.1506553666
54.4815685,2790,0.1468652945
54.519653,2846,0.1498131284
54.5577375,2755,0.1450228984
54.595822,2761,0.1453387377
54.6339065,2881,0.1516555246
54.671991,2812,0.1480233721
54.7100755,2863,0.1507080065
54.74816,2857,0.1503921672
54.7862445,2795,0.147128494
54.824329,2853,0.1501816076
54.8624135,2899,0.1526030426
54.900498,2884,0.1518134442
54.9385825,2916,0.1534979207
54.976667,2931,0.1542875191
55.0147515,2782,0.1464441754
55.052836,2888,0.1520240038
55.0909205,2738,0.1441280202
55.129005,2785,0.1466020951
55.1670895,2845,0.1497604885
55.205174,2683,0.1412328262
55.2432585,2770,0.1458124967
55.281343,2750,0.1447596989
55.3194275,2926,0.1540243196
55.357512,2759,0.1452334579
55.3955965,2798,0.1472864136
55.433681,2865,0.1508132863
55.4717655,2815,0.1481812918
55.50985,2901,0.1527083224
55.5479345,2850,0.150023688
55.586019,2850,0.150023688
55.6241035,2833,0.1491288098
55.662188,2911,0.1532347213
55.7002725,2885,0.1518660841
55.738357,2809,0.1478654524
55.7764415,2934,0.1544454388
55.814526,2913,0.1533400011
55.8526105,2834,0.1491814497
55.890695,2965,0.1560772754
55.9287795,2839,0.1494446492
55.966864,2985,0.1571300732
56.0049485,2950,0.155287677
56.043033,2896,0.1524451229
56.0811175,2961,0.1558667158
56.119202,2977,0.156708954
56.1572865,2901,0.1527083224
56.195371,2928,0.1541295994
56.2334555,2899,0.1526030426
56.27154,2957,0.1556561562
56.3096245,2937,0.1546033584
56.347709,2893,0.1522872032
56.3857935,2954,0.1554982366
56.423878,2808,0.1478128125
56.4619625,2924,0.1539190398
56.500047,2969,0.1562878349
56.5381315,2775,0.1460756962
56.576216,3014,0.15865663
56.6143005,2913,0.1533400011
56.652385,2891,0.1521819235
56.6904695,2918,0.1536032005
56.728554,2895,0.152392483
56.7666385,2876,0.1513923251
56.804723,3019,0.1589198294
56.8428075,2958,0.1557087961
56.880892,3025,0.1592356688
56.9189765,2894,0.1523398431
56.957061,2951,0.1553403169
56.9951455,2955,0.1555508765
57.03323,2961,0.1558667158
57.0713145,2985,0.1571300732
57.109399,2950,0.155287677
57.1474835,2922,0.1538137601
57.185568,2982,0.1569721535
57.2236525,3014,0.15865663
57.261737,3045,0.1602884666
57.2998215,2970,0.1563404748
57.337906,2979,0.1568142338
57.3759905,2934,0.1544454388
57.414075,2847,0.1498657683
57.4521595,3003,0.1580775912
57.490244,2970,0.1563404748
57.5283285,2949,0.1552350371
57.566413,3132,0.1648681371
57.6044975,2994,0.1576038322
57.642582,3102,0.1632889404
57.6806665,3009,0.1583934305
57.718751,2975,0.1566036743
57.7568355,2966,0.1561299152
57.79492,2928,0.1541295994
57.8330045,3019,0.1589198294
57.871089,3025,0.1592356688
57.9091735,3110,0.1637100595
57.947258,3079,0.1620782229
57.9853425,2996,0.157709112
58.023427,3057,0.1609201453
58.0615115,2961,0.1558667158
58.099596,2993,0.1575511923
58.1376805,2986,0.1571827131
58.175765,2994,0.1576038322
58.2138495,2941,0.154813918
58.251934,3097,0.1630257409
58.2900185,3097,0.1630257409
58.328103,2961,0.1558667158
58.3661875,2930,0.1542348792
58.404272,2927,0.1540769595
58.4423565,3005,0.158182871
58.480441,3023,0.159130389
58.5185255,2982,0.1569721535
58.55661,2996,0.157709112
58.5946945,3034,0.1597094278
58.632779,2969,0.1562878349
58.6708635,2896,0.1524451229
58.708948,3022,0.1590777491
58.7470325,2919,0.1536558404
58.785117,3013,0.1586039901
58.8232015,2885,0.1518660841
58.861286,2960,0.1558140759
58.8993705,2945,0.1550244775
58.937455,2916,0.1534979207
58.9755395,2846,0.1498131284
59.013624,3014,0.15865663
59.0517085,2973,0.1564983945
59.089793,2980,0.1568668737
59.1278775,2951,0.1553403169
59.165962,2904,0.152866242
59.2040465,2809,0.1478654524
59.242131,2909,0.1531294415
59.2802155,2935,0.1544980786
59.3183,3055,0.1608148655
59.3563845,2937,0.1546033584
59.394469,2907,0.1530241617
59.4325535,2937,0.1546033584
59.470638,2890,0.1521292836
59.5087225,2994,0.1576038322
59.546807,2958,0.1557087961
59.5848915,2959,0.155761436
59.622976,2955,0.1555508765
59.6610605,2924,0.1539190398
59.699145,2940,0.1547612781
59.7372295,3066,0.1613939043
59.775314,2902,0.1527609623
59.8133985,2836,0.1492867295
59.851483,2912,0.1532873612
59.8895675,3039,0.1599726273
59.927652,2942,0.1548665579
59.9657365,2955,0.1555508765
60.003821,2933,0.1543927989
60.0419055,2968,0.156235195
60.07999,2852,0.1501289677
60.1180745,2881,0.1516555246
60.156159,2885,0.1518660841
60.1942435,2917,0.1535505606
60.232328,2992,0.1574985524
60.2704125,2852,0.1501289677
60.308497,2947,0.1551297573
60.3465815,2987,0.157235353
60.384666,2855,0.1502868874
60.4227505,2897,0.1524977628
60.460835,2836,0.1492867295
60.4989195,2992,0.1574985524
60.537004,2920,0.1537084803
60.5750885,3001,0.1579723114
60.613173,2873,0.1512344054
60.6512575,2991,0.1574459125
60.689342,2971,0.1563931147
60.7274265,2976,0.1566563142
60.765511,2979,0.1568142338
60.8035955,2939,0.1547086382
60.84168,3010,0.1584460704
60.8797645,2785,0.1466020951
60.917849,2902,0.1527609623
60.9559335,2887,0.1519713639
60.994018,2913,0.1533400011
61.0321025,3030,0.1594988682
61.070187,2892,0.1522345634
61.1082715,3004,0.1581302311
61.146356,2908,0.1530768016
61.1844405,2967,0.1561825551
61.222525,2972,0.1564457546
61.2606095,2941,0.154813918
61.298694,2930,0.1542348792
61.3367785,2965,0.1560772754
61.374863,2896,0.1524451229
61.4129475,3047,0.1603937464
61.451032,3061,0.1611307048
61.4891165,2950,0.155287677
61.527201,2952,0.1553929568
61.5652855,2998,0.1578143917
61.60337,3009,0.1583934305
61.6414545,2970,0.1563404748
61.679539,2923,0.1538664
61.7176235,2831,0.14902353
61.755708,3014,0.15865663
61.7937925,3098,0.1630783808
61.831877,2872,0.1511817655
61.8699615,2935,0.1544980786
61.908046,2934,0.1544454388
61.9461305,3040,0.1600252671
61.984215,2902,0.1527609623
62.0222995,2975,0.1566036743
62.060384,2988,0.1572879928
62.0984685,3015,0.1587092699
62.136553,2958,0.1557087961
62.1746375,3032,0.159604148
62.212722,3120,0.1642364584
62.2508065,2882,0.1517081644
62.288891,3012,0.1585513502
62.3269755,3015,0.1587092699
62.36506,3059,0.1610254251
62.4031445,2998,0.1578143917
62.441229,2986,0.1571827131
62.4793135,2923,0.1538664
62.517398,3008,0.1583407907
62.5554825,3041,0.160077907
62.593567,3008,0.1583407907
62.6316515,2920,0.1537084803
62.669736,3038,0.1599199874
62.7078205,3052,0.1606569458
62.745905,3126,0.1645522977
62.7839895,3068,0.1614991841
62.822074,2981,0.1569195136
62.8601585,3050,0.1605516661
62.898243,3024,0.1591830289
62.9363275,2973,0.1564983945
62.974412,3115,0.1639732589
63.0124965,2996,0.157709112
63.050581,3102,0.1632889404
63.0886655,2995,0.1576564721
63.12675,3077,0.1619729431
63.1648345,3051,0.1606043059
63.202919,3124,0.164447018
63.2410035,2983,0.1570247934
63.279088,3091,0.1627099016
63.3171725,3021,0.1590251092
63.355257,3115,0.1639732589
63.3933415,3166,0.1666578934
63.431426,3152,0.1659209349
63.4695105,3090,0.1626572617
63.507595,3100,0.1631836606
63.5456795,3045,0.1602884666
63.583764,3049,0.1604990262
63.6218485,3122,0.1643417382
63.659933,3040,0.1600252671
63.6980175,3154,0.1660262147
63.736102,3092,0.1627625415
63.7741865,3198,0.1683423698
63.812271,3031,0.1595515081
63.8503555,3100,0.1631836606
63.88844,3126,0.1645522977
63.9265245,3152,0.1659209349
63.964609,3152,0.1659209349
64.0026935,3138,0.1651839764
64.040778,3156,0.1661314944
64.0788625,3165,0.1666052535
64.116947,3170,0.1668684529
64.1550315,3126,0.1645522977
64.193116,3151,0.165868295
64.2312005,3098,0.1630783808
64.269285,3193,0.1680791704
64.3073695,3179,0.1673422119
64.345454,3213,0.1691319682
64.3835385,3176,0.1671842923
64.421623,3169,0.166815813
64.4597075,3272,0.1722377217
64.497792,3326,0.1750802758
64.5358765,3233,0.170184766
64.573961,3332,0.1753961152
64.6120455,3302,0.1738169185
64.65013,3320,0.1747644365
64.6882145,3191,0.1679738906
64.726299,3179,0.1673422119
64.7643835,3242,0.170658525
64.802468,3256,0.1713954835
64.8405525,3272,0.1722377217
64.878637,3216,0.1692898879
64.9167215,3373,0.1775543507
64.954806,3345,0.1760804338
64.9928905,3395,0.1787124283
65.030975,3364,0.1770805917
65.0690595,3424,0.1802389851
65.107144,3361,0.176922672
65.1452285,3385,0.1781860294
65.183313,3388,0.178343949
65.2213975,3447,0.1814497026
65.259482,3450,0.1816076223
65.2975665,3353,0.1765015529
65.335651,3564,0.1876085698
65.3737355,3561,0.1874506501
65.41182,3521,0.1853450545
65.4499045,3506,0.1845554561
65.487989,3550,0.1868716113
65.5260735,3490,0.1837132179
65.564158,3734,0.1965573512
65.6022425,3549,0.1868189714
65.640327,3627,0.1909248829
65.6784115,3650,0.1921356004
65.716496,3606,0.1898194452
65.7545805,3649,0.1920829605
65.792665,3638,0.1915039217
65.8307495,3700,0.1947675949
65.868834,3692,0.1943464758
65.9069185,3695,0.1945043954
65.945003,3773,0.1986103069
65.9830875,3822,0.2011896615
66.021172,3918,0.206243091
66.0592565,3847,0.2025056588
66.097341,3891,0.204821814
66.1354255,3896,0.2050850134
66.17351,3840,0.2021371796
66.2115945,3899,0.2052429331
66.249679,4017,0.2114544402
66.2877635,4035,0.2124019582
66.325848,4113,0.2165078697
66.3639325,4141,0.2179817866
66.402017,4231,0.2227193767
66.4401015,4114,0.2165605096
66.478186,4339,0.2284044849
66.5162705,4192,0.220666421
66.554355,4195,0.2208243407
66.5924395,4419,0.2326156762
66.630524,4365,0.2297731221
66.6686085,4440,0.2337211139
66.706693,4400,0.2316155182
66.7447775,4508,0.2373006264
66.782862,4560,0.2400379007
66.8209465,4665,0.2455650892
66.859031,4787,0.2519871559
66.8971155,4686,0.2466705269
66.9352,4820,0.2537242723
66.9732845,4886,0.257198505
67.011369,5030,0.2647786493
67.0494535,5092,0.2680423225
67.087538,5018,0.2641469706
67.1256225,5185,0.2729378323
67.163707,5216,0.2745696689
67.2017915,5322,0.2801494973
67.239876,5274,0.2776227825
67.2779605,5433,0.2859925251
67.316045,5492,0.2890982787
67.3541295,5720,0.3011001737
67.392214,5878,0.3094172764
67.4302985,5898,0.3104700742
67.468383,6007,0.3162078223
67.5064675,6131,0.3227351687
67.544552,6473,0.3407380113
67.5826365,6373,0.3354740222
67.620721,6725,0.3540032637
67.6588055,6874,0.3618466074
67.69689,7061,0.3716902669
67.7349745,7182,0.3780596936
67.773059,7216,0.3798494499
67.8111435,7507,0.3951676581
67.849228,7452,0.3922724641
67.8873125,7678,0.4041690793
67.925397,7776,0.4093277886
67.9634815,7685,0.4045375586
68.001566,7924,0.4171184924
68.0396505,8175,0.4303311049
68.077735,8155,0.4292783071
68.1158195,8169,0.4300152656
68.153904,8324,0.4381744486
68.1919885,8351,0.4395957256
68.230073,8473,0.4460177923
68.2681575,8363,0.4402274043
68.306242,8451,0.4448597147
68.3443265,8533,0.4491761857
68.382411,8781,0.4622308786
68.4204955,8558,0.450492183
68.45858,8794,0.4629151971
68.4966645,8712,0.4585987261
68.534749,8670,0.4563878507
68.5728335,8567,0.450965942
68.610918,8449,0.4447544349
68.6490025,8617,0.4535979365
68.687087,8534,0.4492288256
68.7251715,8530,0.449018266
68.763256,8481,0.4464389114
68.8013405,8622,0.453861136
68.839425,8485,0.446649471
68.8775095,8552,0.4501763436
68.915594,8587,0.4520187398
68.9536785,8475,0.4461230721
68.991763,8277,0.4357003737
69.0298475,8319,0.4379112491
69.067932,8295,0.4366478918
69.1060165,8116,0.4272253514
69.144101,8016,0.4219613623
69.1821855,7829,0.4121177028
69.22027,7929,0.4173816918
69.2583545,7824,0.4118545033
69.296439,7697,0.4051692372
69.3345235,7547,0.3972732537
69.372608,7466,0.3930094225
69.4106925,7427,0.3909564668
69.448777,7164,0.3771121756
69.4868615,7142,0.375954098
69.524946,7219,0.3800073696
69.5630305,6977,0.3672685161
69.601115,6985,0.3676896352
69.6391995,6907,0.3635837237
69.677284,6690,0.3521608675
69.7153685,6682,0.3517397484
69.753453,6501,0.3422119282
69.7915375,6386,0.3361583408
69.829622,6380,0.3358425014
69.8677065,6377,0.3356845818
69.905791,6241,0.3285255567
69.9438755,6259,0.3294730747
69.98196,6112,0.3217350108
70.0200445,6096,0.3208927725
70.058129,5984,0.3149971048
70.0962135,5775,0.3039953677
70.134298,5719,0.3010475338
70.1723825,5746,0.3024688109
70.210467,5648,0.2973101016
70.2485515,5727,0.3014686529
70.286636,5625,0.2960993841
70.3247205,5501,0.2895720377
70.362805,5423,0.2854661262
70.4008895,5295,0.2787282202
70.438974,5328,0.2804653366
70.4770585,5107,0.2688319208
70.515143,5151,0.271148076
70.5532275,5052,0.2659367269
70.591312,5123,0.2696741591
70.6293965,5132,0.2701479181
70.667481,4889,0.2573564247
70.7055655,5093,0.2680949624
70.74365,4851,0.2553561089
70.7817345,4698,0.2473022056
70.819819,4751,0.2500921198
70.8579035,4807,0.2530399537
70.895988,4677,0.2461967679
70.9340725,4755,0.2503026794
70.972157,4620,0.2431962942
71.0102415,4576,0.240880139
71.048326,4712,0.2480391641
71.0864105,4601,0.2421961362
71.124495,4464,0.2349844712
71.1625795,4394,0.2312996789
71.200664,4547,0.2393535821
71.2387485,4396,0.2314049587
71.276833,4350,0.2289835237
71.3149175,4298,0.2262462494
71.353002,4310,0.2268779281
71.3910865,4075,0.2145075538
71.429171,4181,0.2200873822
71.4672555,4296,0.2261409696
71.50534,4201,0.22114018
71.5434245,4177,0.2198768227
71.581509,4090,0.2152971522
71.6195935,4069,0.2141917145
71.657678,4128,0.217297468
71.6957625,4202,0.2211928199
71.733847,4138,0.2178238669
71.7719315,4040,0.2126651577
71.810016,3909,0.205769332
71.8481005,4043,0.2128230773
71.886185,3980,0.2095067642
71.9242695,3903,0.2054534927
71.962354,3973,0.209138285
72.0004385,3855,0.2029267779
72.038523,3948,0.2078222877
72.0766075,3904,0.2055061325
72.114692,3863,0.203347897
72.1527765,3886,0.2045586145
72.190861,3790,0.199505185
72.2289455,3831,0.2016634205
72.26703,3847,0.2025056588
72.3051145,3731,0.1963994315
72.343199,3754,0.197610149
72.3812835,3738,0.1967679107
72.419368,3696,0.1945570353
72.4574525,3710,0.1952939938
72.495537,3663,0.1928199189
72.5336215,3716,0.1956098331
72.571706,3860,0.2031899774
72.6097905,3840,0.2021371796
72.647875,3680,0.1937147971
72.6859595,3675,0.1934515976
72.724044,3716,0.1956098331
72.7621285,3699,0.194714955
72.800213,3663,0.1928199189
72.8382975,3728,0.1962415118
72.876382,3729,0.1962941517
72.9144665,3636,0.1913986419
72.952551,3599,0.1894509659
72.9906355,3631,0.1911354424
73.02872,3755,0.1976627889
73.0668045,3541,0.1863978523
73.104889,3638,0.1915039217
73.1429735,3545,0.1866084119
73.181058,3660,0.1926619993
73.2191425,3690,0.194241196
73.257227,3541,0.1863978523
73.2953115,3560,0.1873980102
73.333396,3549,0.1868189714
73.3714805,3532,0.1859240933
73.409565,3621,0.1906090435
73.4476495,3670,0.1931883982
73.485734,3509,0.1847133758
73.5238185,3636,0.1913986419
73.561903,3458,0.1820287414
73.5999875,3545,0.1866084119
73.638072,3493,0.1838711375
73.6761565,3518,0.1851871348
73.714241,3552,0.1869768911
73.7523255,3568,0.1878191293
73.79041,3506,0.1845554561
73.8284945,3613,0.1901879244
73.866579,3594,0.1891877665
73.9046635,3424,0.1802389851
73.942748,3504,0.1844501763
73.9808325,3537,0.1861872927
74.018917,3573,0.1880823288
74.0570015,3502,0.1843448966
74.095086,3655,0.1923987998
74.1331705,3506,0.1845554561
74.171255,3393,0.1786071485
74.2093395,3527,0.1856608938
74.247424,3548,0.1867663315
74.2855085,3562,0.18750329
74.323593,3550,0.1868716113
74.3616775,3492,0.1838184977
74.399762,3445,0.1813444228
74.4378465,3490,0.1837132179
74.475931,3381,0.1779754698
74.5140155,3524,0.1855029742
74.5521,3579,0.1883981681
74.5901845,3470,0.1826604201
74.628269,3510,0.1847660157
74.6663535,3387,0.1782913092
74.704438,3562,0.18750329
74.7425225,3555,0.1871348108
74.780607,3498,0.184134337
74.8186915,3493,0.1838711375
74.856776,3567,0.1877664894
74.8948605,3538,0.1862399326
74.932945,3542,0.1864504922
74.9710295,3464,0.1823445807
75.009114,3460,0.1821340212
75.0471985,3601,0.1895562457
75.085283,3654,0.1923461599
75.1233675,3529,0.1857661736
75.161452,3452,0.181712902
75.1995365,3556,0.1871874507
75.237621,3727,0.1961888719
75.2757055,3467,0.1825025004
75.31379,3537,0.1861872927
75.3518745,3349,0.1762909933
75.389959,3536,0.1861346528
75.4280435,3422,0.1801337053
75.466128,3548,0.1867663315
75.5042125,3526,0.1856082539
75.542297,3600,0.1895036058
75.5803815,3567,0.1877664894
75.618466,3509,0.1847133758
75.6565505,3489,0.183660578
75.694635,3597,0.1893456862
75.7327195,3512,0.1848712955
75.770804,3647,0.1919776807
75.8088885,3558,0.1872927304
75.846973,3546,0.1866610517
75.8850575,3558,0.1872927304
75.923142,3573,0.1880823288
75.9612265,3648,0.1920303206
75.999311,3619,0.1905037638
76.0373955,3529,0.1857661736
76.07548,3613,0.1901879244
76.1135645,3608,0.189924725
76.151649,3612,0.1901352845
76.1897335,3451,0.1816602621
76.227818,3651,0.1921882402
76.2659025,3665,0.1929251987
76.303987,3545,0.1866084119
76.3420715,3558,0.1872927304
76.380156,3631,0.1911354424
76.4182405,3599,0.1894509659
76.456325,3642,0.1917144812
76.4944095,3642,0.1917144812
76.532494,3750,0.1973995894
76.5705785,3655,0.1923987998
76.608663,3729,0.1962941517
76.6467475,3559,0.1873453703
76.684832,3669,0.1931357583
76.7229165,3773,0.1986103069
76.761001,3662,0.192767279
76.7990855,3658,0.1925567195
76.83717,3610,0.1900300047
76.8752545,3787,0.1993472654
76.913339,3688,0.1941359162
76.9514235,3766,0.1982418277
76.989508,3717,0.195662473
77.0275925,3743,0.1970311102
77.065677,3752,0.1975048692
77.1037615,3713,0.1954519135
77.141846,3813,0.2007159025
77.1799305,3797,0.1998736643
77.218015,3922,0.2064536506
77.2560995,3735,0.1966099911
77.294184,3823,0.2012423014
77.3322685,3844,0.2023477391
77.370353,3823,0.2012423014
77.4084375,3848,0.2025582987
77.446522,3917,0.2061904511
77.4846065,3783,0.1991367058
77.522691,3850,0.2026635785
77.5607755,3820,0.2010843817
77.59886,3929,0.2068221298
77.6369445,3839,0.2020845397
77.675029,3814,0.2007685424
77.7131135,3909,0.205769332
77.751198,3915,0.2060851713
77.7892825,3912,0.2059272517
77.827367,3835,0.2018739801
77.8654515,3943,0.2075590883
77.903536,3862,0.2032952571
77.9416205,3850,0.2026635785
77.979705,3817,0.2009264621
78.0177895,3959,0.2084013265
78.055874,3961,0.2085066063
78.0939585,3966,0.2087698058
78.132043,3946,0.2077170079
78.1701275,3893,0.2049270938
78.208212,4033,0.2122966784
78.2462965,3956,0.2082434069
78.284381,3880,0.2042427752
78.3224655,4073,0.214402274
78.36055,3990,0.2100331631
78.3986345,3998,0.2104542823
78.436719,4096,0.2156129915
78.4748035,3897,0.2051376533
78.512888,3987,0.2098752435
78.5509725,4041,0.2127177975
78.589057,3991,0.210085803
78.6271415,4032,0.2122440385
78.665226,4075,0.2145075538
78.7033105,4163,0.2191398642
78.741395,3955,0.208190767
78.7794795,4084,0.2149813128
78.817564,4023,0.2117702795
78.8556485,4028,0.212033479
78.893733,3933,0.2070326894
78.9318175,3973,0.209138285
78.969902,4116,0.2166657893
79.0079865,4022,0.2117176396
79.046071,4052,0.2132968363
79.0841555,4111,0.2164025899
79.12224,4099,0.2157709112
79.1603245,4045,0.2129283571
79.198409,4176,0.2198241828
79.2364935,4100,0.2158235511
79.274578,4249,0.2236668948
79.3126625,4139,0.2178765068
79.350747,4289,0.2257724904
79.3888315,4284,0.2255092909
79.426916,4206,0.2214033795
79.4650005,4330,0.2279307259
79.503085,4204,0.2212980997
79.5411695,4310,0.2268779281
79.579254,4275,0.2250355319
79.6173385,4423,0.2328262357
79.655423,4390,0.2310891193
79.6935075,4359,0.2294572827
79.731592,4382,0.2306680002
79.7696765,4512,0.237511186
79.807761,4487,0.2361951887
79.8458455,4522,0.2380375849
79.88393,4545,0.2392483024
79.9220145,4424,0.2328788756
79.960099,4743,0.2496710007
79.9981835,4758,0.250460599
80.036268,4676,0.246144128
80.0743525,4647,0.2446175712
80.112437,4889,0.2573564247
80.1505215,4709,0.2478812444
80.188606,4789,0.2520924356
80.2266905,4837,0.2546191504
80.264775,4857,0.2556719482
80.3028595,4902,0.2580407433
80.340944,5045,0.2655682476
80.3790285,5053,0.2659893667
80.417113,5103,0.2686213613
80.4551975,5055,0.2660946465
80.493282,5096,0.268252882
80.5313665,5109,0.2689372006
80.569451,5321,0.2800968574
80.6075355,5268,0.2773069432
80.64562,5346,0.2814128547
80.6837045,5275,0.2776754224
80.721789,5500,0.2895193978
80.7598735,5522,0.2906774754
80.797958,5726,0.3014160131
80.8360425,5653,0.297573301
80.874127,5754,0.30288993
80.9122115,5830,0.3068905617
80.950296,6069,0.3194714955
80.9883805,6089,0.3205242933
81.026465,6073,0.3196820551
81.0645495,6125,0.3224193294
81.102634,6173,0.3249460441
81.1407185,6375,0.335579302
81.178803,6497,0.3420013686
81.2168875,6579,0.3463178397
81.254972,6662,0.3506869506
81.2930565,6956,0.3661630784
81.331141,7146,0.3761646576
81.3692255,7077,0.3725325051
81.40731,7266,0.3824814444
81.4453945,7359,0.3873769543
81.483479,7557,0.3977996526
81.5215635,7663,0.403379481
81.559648,7964,0.419224088
81.5977325,7936,0.4177501711
81.635817,8256,0.434594936
81.6739015,8192,0.431225983
81.711986,8349,0.4394904459
81.7500705,8395,0.4419118808
81.788155,8781,0.4622308786
81.8262395,8697,0.4578091278
81.864324,8978,0.472600937
81.9024085,9095,0.4787598042
81.940493,9144,0.4813391588
81.9785775,9372,0.4933410539
82.016662,9536,0.5019739959
82.0547465,9438,0.4968152866
82.092831,9718,0.511554456
82.1309155,9863,0.5191872401
82.169,9893,0.5207664368
82.2070845,9971,0.5248723483
82.245169,10090,0.5311364952
82.2832535,10061,0.5296099384
82.321338,10041,0.5285571406
82.3594225,10369,0.5458230247
82.397507,10080,0.5306100963
82.4355915,10107,0.5320313734
82.473676,9981,0.5253987472
82.5117605,10214,0.5376638417
82.549845,10049,0.5289782597
82.5879295,10236,0.5388219193
82.626014,10190,0.5364004843
82.6640985,10296,0.5419803127
82.702183,10161,0.5348739275
82.7402675,10242,0.5391377586
82.778352,10280,0.5411380744
82.8164365,10291,0.5417171132
82.854521,10263,0.5402431963
82.8926055,10288,0.5415591936
82.93069,10197,0.5367689635
82.9687745,9977,0.5251881876
83.006859,10143,0.5339264094
83.0449435,10048,0.5289256198
83.083028,10015,0.5271885034
83.1211125,9956,0.5240827499
83.159197,10063,0.5297152182
83.1972815,10195,0.5366636837
83.235366,9914,0.5218718745
83.2734505,9891,0.520661157
83.311535,9871,0.5196083592
83.3496195,9934,0.5229246723
83.387704,9999,0.5263462652
83.4257885,9767,0.5141338106
83.463873,9993,0.5260304259
83.5019575,9671,0.5090803811
83.540042,9543,0.5023424751
83.5781265,9741,0.5127651734
83.616211,9492,0.4996578407
83.6542955,9507,0.5004474391
83.69238,9380,0.493762173
83.7304645,9301,0.4896036216
83.768549,9290,0.4890245828
83.8066335,9540,0.5021845555
83.844718,9264,0.4876559457
83.8828025,9141,0.4811812391
83.920887,9086,0.4782860452
83.9589715,9053,0.4765489288
83.997056,8913,0.4691793441
84.0351405,8779,0.4621255988
84.073225,8872,0.4670211086
84.1113095,8708,0.4583881666
84.149394,8676,0.4567036901
84.1874785,8548,0.4499657841
84.225563,8518,0.4483865874
84.2636475,8442,0.4443859557
84.301732,8420,0.4432278781
84.3398165,8399,0.4421224404
84.377901,8146,0.4288045481
84.4159855,8219,0.4326472601
84.45407,8031,0.4227509607
84.4921545,8012,0.4217508028
84.530239,7715,0.4061167553
84.5683235,7870,0.4142759383
84.606408,7730,0.4069063536
84.6444925,7537,0.3967468548
84.682577,7597,0.3999052482
84.7206615,7555,0.3976943728
84.758746,7394,0.3892193504
84.7968305,7514,0.3955361373
84.834915,7298,0.3841659209
84.8729995,7107,0.3741117018
84.911084,7195,0.3787440122
84.9491685,7151,0.376427857
84.987253,6970,0.3669000368
85.0253375,6839,0.3600042112
85.063422,6829,0.3594778123
85.1015065,6796,0.3577406959
85.139591,6756,0.3556351003
85.1776755,6783,0.3570563773
85.21576,6855,0.3608464494
85.2538445,6674,0.3513186293
85.291929,6816,0.3587934937
85.3300135,6646,0.3498447123
85.368098,6751,0.3553719008
85.4061825,6648,0.3499499921
85.444267,6531,0.3437911249
85.4823515,6527,0.3435805654
85.520436,6602,0.3475285571
85.5585205,6546,0.3445807233
85.596605,6342,0.3338421856
85.6346895,6428,0.3383692162
85.672774,6209,0.3268410802
85.7108585,6428,0.3383692162
85.748943,6267,0.3298941938
85.7870275,6275,0.3303153129
85.825112,6342,0.3338421856
85.8631965,6272,0.3301573933
85.901281,6193,0.3259988419
85.9393655,6043,0.3181028583
85.97745,6294,0.3313154709
86.0155345,6089,0.3205242933
86.053619,6135,0.3229457283
86.0917035,6156,0.324051166
86.129788,6195,0.3261041217
86.1678725,6168,0.3246828447
86.205957,6061,0.3190503764
86.2440415,6046,0.318260778
86.282126,6237,0.3283149971
86.3202105,6069,0.3194714955
86.358295,6178,0.3252092436
86.3963795,5954,0.3134179081
86.434464,6188,0.3257356425
86.4725485,6085,0.3203137337
86.510633,6179,0.3252618835
86.5487175,6195,0.3261041217
86.586802,6090,0.3205769332
86.6248865,6084,0.3202610939
86.662971,6092,0.320682213
86.7010555,6071,0.3195767753
86.73914,5978,0.3146812655
86.7772245,6015,0.3166289414
86.815309,5962,0.3138390272
86.8533935,6159,0.3242090856
86.891478,5862,0.3085750382
86.9295625,6005,0.3161025425
86.967647,5928,0.3120492709
87.0057315,5895,0.3103121546
87.043816,5826,0.3066800021
87.0819005,5838,0.3073116808
87.119985,5856,0.3082591988
87.1580695,5920,0.3116281518
87.196154,5675,0.2987313786
87.2342385,5841,0.3074696005
87.272323,5774,0.3039427278
87.3104075,5638,0.2967837027
87.348492,5731,0.3016792125
87.3865765,5662,0.2980470601
87.424661,5557,0.2925198716
87.4627455,5585,0.2939937885
87.50083,5512,0.2901510765
87.5389145,5657,0.2977838606
87.576999,5715,0.3008369743
87.6150835,5436,0.2861504448
87.653168,5483,0.2886245197
87.6912525,5486,0.2887824393
87.729337,5371,0.2827288519
87.7674215,5312,0.2796230984
87.805506,5361,0.282202453
87.8435905,5204,0.2739379902
87.881675,5201,0.2737800705
87.9197595,5268,0.2773069432
87.957844,5160,0.271621835
87.9959285,5071,0.2669368848
88.034013,5060,0.266357846
88.0720975,5067,0.2667263252
88.110182,5005,0.263462652
88.1482665,5060,0.266357846
88.186351,5159,0.2715691951
88.2244355,5025,0.2645154498
88.26252,4853,0.2554613886
88.3006045,4862,0.2559351477
88.338689,4971,0.2616728957
88.3767735,4799,0.2526188346
88.414858,4798,0.2525661947
88.4529425,4867,0.2561983471
88.491027,4657,0.2451439701
88.5291115,4639,0.2441964521
88.567196,4655,0.2450386903
88.6052805,4591,0.2416697373
88.643365,4604,0.2423540559
88.6814495,4541,0.2390377428
88.719534,4583,0.2412486182
88.7576185,4569,0.2405116597
88.795703,4566,0.2403537401
88.8337875,4604,0.2423540559
88.871872,4460,0.2347739117
88.9099565,4388,0.2309838396
88.948041,4374,0.2302468811
88.9861255,4409,0.2320892773
89.02421,4322,0.2275096068
89.0622945,4356,0.2292993631
89.100379,4233,0.2228246565
89.1384635,4344,0.2286676844
89.176548,4104,0.2160341106
89.2146325,4284,0.2255092909
89.252717,4134,0.2176133074
89.2908015,4089,0.2152445123
89.328886,4077,0.2146128336
89.3669705,4071,0.2142969943
89.405055,4049,0.2131389167
89.4431395,4028,0.212033479
89.481224,4043,0.2128230773
89.5193085,4029,0.2120861189
89.557393,3979,0.2094541243
89.5954775,4018,0.2115070801
89.633562,3972,0.2090856451
89.6716465,3915,0.2060851713
89.709731,3781,0.199031426
89.7478155,3865,0.2034531768
89.7859,3904,0.2055061325
89.8239845,3812,0.2006632626
89.862069,3909,0.205769332
89.9001535,3888,0.2046638943
89.938238,3766,0.1982418277
89.9763225,3760,0.1979259883