10,6604
10.0354533,6583
10.0709066,6582
10.1063599,6612
10.1418132,6651
10.1772665,6575
10.2127198,6625
10.2481731,6545
10.2836264,6408
10.3190797,6562
10.354533,6402
10.3899863,6484
10.4254396,6428
10.4608929,6619
10.4963462,6484
10.5317995,6328
10.5672528,6675
10.6027061,6432
10.6381594,6436
10.6736127,6282
10.709066,6303
10.7445193,6340
10.7799726,6368
10.8154259,6236
10.8508792,6298
10.8863325,6301
10.9217858,6289
10.9572391,6162
10.9926924,6260
11.0281457,6183
11.063599,5960
11.0990523,6165
11.1345056,6324
11.1699589,5985
11.2054122,6153
11.2408655,6150
11.2763188,6057
11.3117721,6074
11.3472254,5970
11.3826787,5987
11.418132,5798
11.4535853,6014
11.4890386,5943
11.5244919,6011
11.5599452,5977
11.5953985,5912
11.6308518,6046
11.6663051,5966
11.7017584,5994
11.7372117,5992
11.772665,5717
11.8081183,5696
11.8435716,5726
11.8790249,5702
11.9144782,5828
11.9499315,5754
11.9853848,5670
12.0208381,5721
12.0562914,5619
12.0917447,5484
12.127198,5673
12.1626513,5581
12.1981046,5545
12.2335579,5592
12.2690112,5564
12.3044645,5496
12.3399178,5493
12.3753711,5494
12.4108244,5482
12.4462777,5390
12.481731,5459
12.5171843,5478
12.5526376,5310
12.5880909,5379
12.6235442,5351
12.6589975,5384
12.6944508,5207
12.7299041,5243
12.7653574,5225
12.8008107,5214
12.836264,5131
12.8717173,5065
12.9071706,5129
12.9426239,5122
12.9780772,5098
13.0135305,5083
13.0489838,5028
13.0844371,5167
13.1198904,4871
13.1553437,4819
13.190797,4859
13.2262503,4987
13.2617036,4884
13.2971569,4753
13.3326102,4725
13.3680635,4683
13.4035168,4901
13.4389701,4776
13.4744234,4710
13.5098767,4722
13.54533,4580
13.5807833,4584
13.6162366,4594
13.6516899,4661
13.6871432,4611
13.7225965,4544
13.7580498,4519
13.7935031,4411
13.8289564,4577
13.8644097,4359
13.899863,4485
13.9353163,4491
13.9707696,4321
14.0062229,4275
14.0416762,4386
14.0771295,4363
14.1125828,4345
14.1480361,4281
14.1834894,4152
14.2189427,4195
14.254396,4284
14.2898493,4307
14.3253026,4241
14.3607559,4171
14.3962092,4260
14.4316625,4279
14.4671158,4096
14.5025691,4046
14.5380224,4208
14.5734757,4133
14.608929,4258
14.6443823,4134
14.6798356,4165
14.7152889,4142
14.7507422,4111
14.7861955,4162
14.8216488,4166
14.8571021,4172
14.8925554,4015
14.9280087,4142
14.963462,4085
14.9989153,4123
15.0343686,4043
15.0698219,4086
15.1052752,4040
15.1407285,4025
15.1761818,4065
15.2116351,4057
15.2470884,4123
15.2825417,4002
15.317995,4121
15.3534483,3930
15.3889016,4088
15.4243549,4083
15.4598082,3963
15.4952615,4040
15.5307148,4043
15.5661681,4024
15.6016214,3954
15.6370747,4026
15.672528,4088
15.7079813,3951
15.7434346,3983
15.7788879,3879
15.8143412,4011
15.8497945,3980
15.8852478,3986
15.9207011,4011
15.9561544,3845
15.9916077,3835
16.027061,4028
16.0625143,3933
16.0979676,3932
16.1334209,3951
16.1688742,3777
16.2043275,3921
16.2397808,3899
16.2752341,3954
16.3106874,3857
16.3461407,4084
16.381594,3816
16.4170473,3909
16.4525006,3869
16.4879539,3904
16.5234072,3876
16.5588605,3888
16.5943138,3825
16.6297671,3897
16.6652204,3865
16.7006737,3907
16.736127,3871
16.7715803,3805
16.8070336,3874
16.8424869,3913
16.8779402,3731
16.9133935,3858
16.9488468,3800
16.9843001,3831
17.0197534,3843
17.0552067,3830
17.09066,3824
17.1261133,3934
17.1615666,3833
17.1970199,3772
17.2324732,3802
17.2679265,3761
17.3033798,3684
17.3388331,3796
17.3742864,3786
17.4097397,3887
17.445193,3723
17.4806463,3697
17.5160996,3681
17.5515529,3870
17.5870062,3755
17.6224595,3650
17.6579128,3754
17.6933661,3816
17.7288194,3711
17.7642727,3676
17.799726,3710
17.8351793,3761
17.8706326,3683
17.9060859,3756
17.9415392,3702
17.9769925,3676
18.0124458,3683
18.0478991,3652
18.0833524,3647
18.1188057,3628
18.154259,3608
18.1897123,3770
18.2251656,3662
18.2606189,3802
18.2960722,3636
18.3315255,3596
18.3669788,3668
18.4024321,3819
18.4378854,3699
18.4733387,3608
18.508792,3621
18.5442453,3676
18.5796986,3634
18.6151519,3732
18.6506052,3524
18.6860585,3647
18.7215118,3734
18.7569651,3743
18.7924184,3653
18.8278717,3654
18.863325,3543
18.8987783,3592
18.9342316,3634
18.9696849,3550
19.0051382,3617
19.0405915,3491
19.0760448,3548
19.1114981,3591
19.1469514,3610
19.1824047,3567
19.217858,3440
19.2533113,3568
19.2887646,3539
19.3242179,3671
19.3596712,3540
19.3951245,3574
19.4305778,3557
19.4660311,3507
19.5014844,3519
19.5369377,3346
19.572391,3427
19.6078443,3515
19.6432976,3447
19.6787509,3546
19.7142042,3531
19.7496575,3524
19.7851108,3524
19.8205641,3489
19.8560174,3531
19.8914707,3458
19.926924,3542
19.9623773,3571
19.9978306,3457
20.0332839,3514
20.0687372,3474
20.1041905,3442
20.1396438,3381
20.1750971,3467
20.2105504,3500
20.2460037,3452
20.281457,3464
20.3169103,3374
20.3523636,3400
20.3878169,3432
20.4232702,3447
20.4587235,3402
20.4941768,3475
20.5296301,3373
20.5650834,3546
20.6005367,3381
20.63599,3413
20.6714433,3411
20.7068966,3324
20.7423499,3422
20.7778032,3361
20.8132565,3391
20.8487098,3435
20.8841631,3367
20.9196164,3255
20.9550697,3399
20.990523,3419
21.0259763,3476
21.0614296,3423
21.0968829,3327
21.1323362,3213
21.1677895,3376
21.2032428,3346
21.2386961,3334
21.2741494,3394
21.3096027,3365
21.345056,3213
21.3805093,3370
21.4159626,3351
21.4514159,3419
21.4868692,3393
21.5223225,3370
21.5577758,3385
21.5932291,3372
21.6286824,3442
21.6641357,3423
21.699589,3350
21.7350423,3233
21.7704956,3411
21.8059489,3410
21.8414022,3375
21.8768555,3342
21.9123088,3326
21.9477621,3286
21.9832154,3390
22.0186687,3338
22.054122,3342
22.0895753,3333
22.1250286,3367
22.1604819,3371
22.1959352,3337
22.2313885,3357
22.2668418,3378
22.3022951,3193
22.3377484,3218
22.3732017,3331
22.408655,3401
22.4441083,3288
22.4795616,3171
22.5150149,3328
22.5504682,3169
22.5859215,3246
22.6213748,3206
22.6568281,3302
22.6922814,3323
22.7277347,3254
22.763188,3246
22.7986413,3212
22.8340946,3335
22.8695479,3174
22.9050012,3187
22.9404545,3284
22.9759078,3174
23.0113611,3172
23.0468144,3228
23.0822677,3303
23.117721,3220
23.1531743,3296
23.1886276,3197
23.2240809,3278
23.2595342,3206
23.2949875,3190
23.3304408,3128
23.3658941,3337
23.4013474,3326
23.4368007,3164
23.472254,3279
23.5077073,3070
23.5431606,3160
23.5786139,3204
23.6140672,3140
23.6495205,3184
23.6849738,3231
23.7204271,3135
23.7558804,3209
23.7913337,3189
23.826787,3194
23.8622403,3183
23.8976936,3036
23.9331469,3109
23.9686002,3212
24.0040535,3187
24.0395068,3244
24.0749601,3216
24.1104134,3089
24.1458667,3134
24.18132,3096
24.2167733,3200
24.2522266,3115
24.2876799,3134
24.3231332,3110
24.3585865,3201
24.3940398,3223
24.4294931,3134
24.4649464,3092
24.5003997,3144
24.535853,3251
24.5713063,3154
24.6067596,3108
24.6422129,3104
24.6776662,3130
24.7131195,3127
24.7485728,3125
24.7840261,3105
24.8194794,3074
24.8549327,3143
24.890386,3156
24.9258393,3060
24.9612926,3124
24.9967459,3133
25.0321992,3141
25.0676525,3139
25.1031058,3089
25.1385591,3140
25.1740124,3055
25.2094657,3122
25.244919,3018
25.2803723,3067
25.3158256,3062
25.3512789,3051
25.3867322,2986
25.4221855,2992
25.4576388,3094
25.4930921,3132
25.5285454,3078
25.5639987,3082
25.599452,3040
25.6349053,3178
25.6703586,3020
25.7058119,2915
25.7412652,3095
25.7767185,3069
25.8121718,2938
25.8476251,3040
25.8830784,2963
25.9185317,3080
25.953985,2973
25.9894383,3062
26.0248916,3020
26.0603449,3062
26.0957982,2997
26.1312515,3052
26.1667048,3067
26.2021581,3132
26.2376114,3150
26.2730647,3007
26.308518,3005
26.3439713,3079
26.3794246,2984
26.4148779,3085
26.4503312,2898
26.4857845,2942
26.5212378,3053
26.5566911,3014
26.5921444,3087
26.6275977,3059
26.663051,3012
26.6985043,3201
26.7339576,2964
26.7694109,3070
26.8048642,3040
26.8403175,3018
26.8757708,2952
26.9112241,2962
26.9466774,3125
26.9821307,2919
27.017584,3095
27.0530373,2974
27.0884906,2943
27.1239439,3009
27.1593972,2999
27.1948505,2877
27.2303038,2954
27.2657571,2943
27.3012104,3003
27.3366637,3051
27.372117,3027
27.4075703,3004
27.4430236,3034
27.4784769,2979
27.5139302,2953
27.5493835,3037
27.5848368,2981
27.6202901,2912
27.6557434,2964
27.6911967,2949
27.72665,2958
27.7621033,2961
27.7975566,2982
27.8330099,2919
27.8684632,2931
27.9039165,2899
27.9393698,3050
27.9748231,3048
28.0102764,2947
28.0457297,3014
28.081183,2942
28.1166363,2919
28.1520896,3036
28.1875429,3098
28.2229962,3084
28.2584495,2913
28.2939028,2921
28.3293561,3088
28.3648094,2947
28.4002627,3036
28.435716,2962
28.4711693,2992
28.5066226,2970
28.5420759,2999
28.5775292,2938
28.6129825,3005
28.6484358,2961
28.6838891,2872
28.7193424,3037
28.7547957,2977
28.790249,2880
28.8257023,2955
28.8611556,2890
28.8966089,2927
28.9320622,2870
28.9675155,2878
29.0029688,2971
29.0384221,3175
29.0738754,3035
29.1093287,3184
29.144782,3219
29.1802353,3151
29.2156886,2959
29.2511419,3105
29.2865952,2946
29.3220485,2978
29.3575018,2952
29.3929551,2982
29.4284084,3002
29.4638617,2909
29.499315,2893
29.5347683,2926
29.5702216,2914
29.6056749,3002
29.6411282,2990
29.6765815,3000
29.7120348,2885
29.7474881,2913
29.7829414,3054
29.8183947,2952
29.853848,2940
29.8893013,2939
29.9247546,3028
29.9602079,2888
29.9956612,2882
30.0311145,3077
30.0665678,3019
30.1020211,2982
30.1374744,3031
30.1729277,2887
30.208381,2937
30.2438343,2908
30.2792876,3059
30.3147409,2887
30.3501942,2947
30.3856475,2935
30.4211008,2938
30.4565541,2852
30.4920074,2989
30.5274607,3043
30.562914,2930
30.5983673,2951
30.6338206,2979
30.6692739,2921
30.7047272,3050
30.7401805,3008
30.7756338,2992
30.8110871,2991
30.8465404,2898
30.8819937,3025
30.917447,3027
30.9529003,3086
30.9883536,2800
31.0238069,3015
31.0592602,2984
31.0947135,2957
31.1301668,2996
31.1656201,3006
31.2010734,3053
31.2365267,2964
31.27198,2863
31.3074333,3010
31.3428866,3047
31.3783399,3002
31.4137932,2950
31.4492465,2902
31.4846998,3047
31.5201531,2987
31.5556064,2940
31.5910597,2914
31.626513,3040
31.6619663,2923
31.6974196,3006
31.7328729,2973
31.7683262,2871
31.8037795,2905
31.8392328,3098
31.8746861,2989
31.9101394,3004
31.9455927,3057
31.981046,2932
32.0164993,3003
32.0519526,3016
32.0874059,3056
32.1228592,2900
32.1583125,3037
32.1937658,2954
32.2292191,2982
32.2646724,2977
32.3001257,2964
32.335579,3025
32.3710323,3001
32.4064856,3070
32.4419389,3070
32.4773922,2998
32.5128455,2976
32.5482988,3082
32.5837521,2932
32.6192054,3087
32.6546587,2978
32.690112,3078
32.7255653,3017
32.7610186,2990
32.7964719,3031
32.8319252,2952
32.8673785,2897
32.9028318,3010
32.9382851,3052
32.9737384,2938
33.0091917,3039
33.044645,3003
33.0800983,3002
33.1155516,3046
33.1510049,2971
33.1864582,3093
33.2219115,3091
33.2573648,3147
33.2928181,3021
33.3282714,3046
33.3637247,3079
33.399178,2969
33.4346313,3114
33.4700846,3002
33.5055379,3058
33.5409912,3178
33.5764445,3141
33.6118978,3161
33.6473511,3118
33.6828044,3082
33.7182577,3055
33.753711,3027
33.7891643,3127
33.8246176,3067
33.8600709,3017
33.8955242,3087
33.9309775,3149
33.9664308,3121
34.0018841,3028
34.0373374,3124
34.0727907,3047
34.108244,3143
34.1436973,3053
34.1791506,3127
34.2146039,3083
34.2500572,3110
34.2855105,3153
34.3209638,3093
34.3564171,3102
34.3918704,3149
34.4273237,3226
34.462777,3148
34.4982303,3177
34.5336836,3171
34.5691369,3174
34.6045902,3289
34.6400435,3220
34.6754968,3250
34.7109501,3203
34.7464034,3196
34.7818567,3220
34.81731,3211
34.8527633,3287
34.8882166,3221
34.9236699,3279
34.9591232,3298
34.9945765,3299
35.0300298,3262
35.0654831,3326
35.1009364,3333
35.1363897,3322
35.171843,3426
35.2072963,3429
35.2427496,3299
35.2782029,3341
35.3136562,3310
35.3491095,3297
35.3845628,3296
35.4200161,3309
35.4554694,3251
35.4909227,3402
35.526376,3482
35.5618293,3397
35.5972826,3345
35.6327359,3386
35.6681892,3386
35.7036425,3427
35.7390958,3517
35.7745491,3539
35.8100024,3483
35.8454557,3559
35.880909,3595
35.9163623,3522
35.9518156,3463
35.9872689,3524
36.0227222,3659
36.0581755,3589
36.0936288,3566
36.1290821,3611
36.1645354,3581
36.1999887,3677
36.235442,3559
36.2708953,3714
36.3063486,3742
36.3418019,3590
36.3772552,3685
36.4127085,3780
36.4481618,3783
36.4836151,3756
36.5190684,3813
36.5545217,3883
36.589975,3817
36.6254283,3883
36.6608816,3916
36.6963349,4022
36.7317882,3900
36.7672415,3978
36.8026948,4091
36.8381481,4073
36.8736014,4032
36.9090547,4267
36.944508,4289
36.9799613,4228
37.0154146,4368
37.0508679,4478
37.0863212,4417
37.1217745,4524
37.1572278,4690
37.1926811,4695
37.2281344,4678
37.2635877,4816
37.299041,4973
37.3344943,5198
37.3699476,5428
37.4054009,5264
37.4408542,5487
37.4763075,5636
37.5117608,5838
37.5472141,5947
37.5826674,6201
37.6181207,6370
37.653574,6632
37.6890273,6858
37.7244806,7086
37.7599339,7349
37.7953872,7414
37.8308405,7693
37.8662938,7923
37.9017471,8281
37.9372004,8203
37.9726537,8666
38.008107,8684
38.0435603,8947
38.0790136,9181
38.1144669,9104
38.1499202,9409
38.1853735,9218
38.2208268,9258
38.2562801,9385
38.2917334,9253
38.3271867,9330
38.36264,9315
38.3980933,9220
38.4335466,9118
38.4689999,8861
38.5044532,8925
38.5399065,8927
38.5753598,8722
38.6108131,8704
38.6462664,8758
38.6817197,8676
38.717173,8737
38.7526263,8598
38.7880796,8457
38.8235329,8714
38.8589862,8484
38.8944395,8493
38.9298928,8469
38.9653461,8699
39.0007994,8605
39.0362527,8607
39.071706,8785
39.1071593,8791
39.1426126,8825
39.1780659,9069
39.2135192,8924
39.2489725,9220
39.2844258,9493
39.3198791,9610
39.3553324,9695
39.3907857,10098
39.426239,10154
39.4616923,10619
39.4971456,10824
39.5325989,11296
39.5680522,11657
39.6035055,12153
39.6389588,12661
39.6744121,12872
39.7098654,13527
39.7453187,14030
39.780772,14845
39.8162253,15436
39.8516786,15991
39.8871319,16510
39.9225852,17059
39.9580385,17537
39.9934918,18112
40.0289451,18074
40.0643984,18419
40.0998517,18362
40.135305,18580
40.1707583,18343
40.2062116,17859
40.2416649,17393
40.2771182,16977
40.3125715,16523
40.3480248,16446
40.3834781,16029
40.4189314,15472
40.4543847,15153
40.489838,14972
40.5252913,14516
40.5607446,14453
40.5961979,14114
40.6316512,13933
40.6671045,14043
40.7025578,13925
40.7380111,13871
40.7734644,13756
40.8089177,13636
40.844371,13596
40.8798243,13510
40.9152776,13735
40.9507309,13737
40.9861842,13984
41.0216375,13902
41.0570908,13872
41.0925441,14041
41.1279974,14162
41.1634507,14097
41.198904,14132
41.2343573,14323
41.2698106,14298
41.3052639,14283
41.3407172,14398
41.3761705,14619
41.4116238,14275
41.4470771,14370
41.4825304,14389
41.5179837,14140
41.553437,14038
41.5888903,13983
41.6243436,13850
41.6597969,13622
41.6952502,13722
41.7307035,13473
41.7661568,13490
41.8016101,13089
41.8370634,12970
41.8725167,12617
41.90797,12649
41.9434233,12440
41.9788766,12456
42.0143299,12168
42.0497832,12171
42.0852365,11628
42.1206898,11776
42.1561431,11693
42.1915964,11740
42.2270497,11845
42.262503,11713
42.2979563,11578
42.3334096,11548
42.3688629,11489
42.4043162,11735
42.4397695,11575
42.4752228,11676
42.5106761,11660
42.5461294,11979
42.5815827,12349
42.617036,12166
42.6524893,12236
42.6879426,12483
42.7233959,12535
42.7588492,12944
42.7943025,13158
42.8297558,13176
42.8652091,13586
42.9006624,13695
42.9361157,14193
42.971569,14532
43.0070223,14743
43.0424756,14898
43.0779289,15553
43.1133822,15937
43.1488355,16076
43.1842888,16531
43.2197421,16799
43.2551954,17386
43.2906487,17807
43.326102,17907
43.3615553,18162
43.3970086,18996
43.4324619,18843
43.4679152,19220
43.5033685,19283
43.5388218,19592
43.5742751,19682
43.6097284,19630
43.6451817,19735
43.680635,19763
43.7160883,19739
43.7515416,19579
43.7869949,19111
43.8224482,18878
43.8579015,18535
43.8933548,18078
43.9288081,18004
43.9642614,17302
43.9997147,16979
44.035168,16599
44.0706213,15769
44.1060746,15426
44.1415279,15015
44.1769812,14805
44.2124345,14127
44.2478878,13839
44.2833411,13456
44.3187944,12943
44.3542477,12717
44.389701,12181
44.4251543,11974
44.4606076,11830
44.4960609,11573
44.5315142,11103
44.5669675,10843
44.6024208,10742
44.6378741,10364
44.6733274,10033
44.7087807,10033
44.744234,9661
44.7796873,9626
44.8151406,9366
44.8505939,9158
44.8860472,9140
44.9215005,9065
44.9569538,8802
44.9924071,8826
45.0278604,8722
45.0633137,8379
45.098767,8300
45.1342203,8440
45.1696736,8267
45.2051269,8323
45.2405802,7960
45.2760335,7910
45.3114868,8000
45.3469401,7874
45.3823934,7981
45.4178467,7749
45.4533,7667
45.4887533,7786
45.5242066,7635
45.5596599,7774
45.5951132,7591
45.6305665,7714
45.6660198,7506
45.7014731,7647
45.7369264,7885
45.7723797,7660
45.807833,7882
45.8432863,7779
45.8787396,7732
45.9141929,7807
45.9496462,7959
45.9850995,8083
46.0205528,8167
46.0560061,7990
46.0914594,8345
46.1269127,8259
46.162366,8368
46.1978193,8589
46.2332726,8795
46.2687259,8859
46.3041792,9122
46.3396325,9204
46.3750858,9074
46.4105391,9542
46.4459924,9531
46.4814457,9593
46.516899,9776
46.5523523,9574
46.5878056,9695
46.6232589,9762
46.6587122,9585
46.6941655,9350
46.7296188,9394
46.7650721,9370
46.8005254,8876
46.8359787,8614
46.871432,8509
46.9068853,8294
46.9423386,8093
46.9777919,7834
47.0132452,7503
47.0486985,7418
47.0841518,7127
47.1196051,7148
47.1550584,6764
47.1905117,6824
47.225965,6689
47.2614183,6454
47.2968716,6362
47.3323249,6153
47.3677782,6083
47.4032315,5980
47.4386848,5763
47.4741381,5670
47.5095914,5675
47.5450447,5545
47.580498,5491
47.6159513,5321
47.6514046,5414
47.6868579,5312
47.7223112,5213
47.7577645,5048
47.7932178,5037
47.8286711,4982
47.8641244,4964
47.8995777,4843
47.935031,4702
47.9704843,4848
48.0059376,4833
48.0413909,4717
48.0768442,4701
48.1122975,4443
48.1477508,4568
48.1832041,4474
48.2186574,4410
48.2541107,4405
48.289564,4318
48.3250173,4424
48.3604706,4286
48.3959239,4105
48.4313772,4143
48.4668305,4311
48.5022838,4345
48.5377371,4158
48.5731904,4112
48.6086437,4080
48.644097,4056
48.6795503,3989
48.7150036,3980
48.7504569,3984
48.7859102,3896
48.8213635,4058
48.8568168,3998
48.8922701,3864
48.9277234,3802
48.9631767,3733
48.99863,3905
49.0340833,3779
49.0695366,3832
49.1049899,3715
49.1404432,3812
49.1758965,3705
49.2113498,3715
49.2468031,3617
49.2822564,3606
49.3177097,3689
49.353163,3667
49.3886163,3621
49.4240696,3628
49.4595229,3591
49.4949762,3677
49.5304295,3499
49.5658828,3577
49.6013361,3577
49.6367894,3439
49.6722427,3360
49.707696,3531
49.7431493,3463
49.7786026,3416
49.8140559,3483
49.8495092,3394
49.8849625,3424
49.9204158,3367
49.9558691,3241
49.9913224,3380
50.0267757,3385
50.062229,3287
50.0976823,3322
50.1331356,3341
50.1685889,3392
50.2040422,3308
50.2394955,3328
50.2749488,3302
50.3104021,3276
50.3458554,3386
50.3813087,3369
50.416762,3337
50.4522153,3334
50.4876686,3241
50.5231219,3329
50.5585752,3259
50.5940285,3220
50.6294818,3262
50.6649351,3188
50.7003884,3272
50.7358417,3165
50.771295,3173
50.8067483,3298
50.8422016,3239
50.8776549,3238
50.9131082,3149
50.9485615,3078
50.9840148,3168
51.0194681,3083
51.0549214,3207
51.0903747,3106
51.125828,3297
51.1612813,3190
51.1967346,3160
51.2321879,3280
51.2676412,3102
51.3030945,3125
51.3385478,3166
51.3740011,3105
51.4094544,3251
51.4449077,3162
51.480361,3084
51.5158143,3040
51.5512676,3218
51.5867209,3145
51.6221742,3119
51.6576275,3143
51.6930808,2982
51.7285341,3089
51.7639874,3003
51.7994407,3054
51.834894,3204
51.8703473,3104
51.9058006,3066
51.9412539,2967
51.9767072,3035
52.0121605,3098
52.0476138,3097
52.0830671,3078
52.1185204,3130
52.1539737,3078
52.189427,3069
52.2248803,2981
52.2603336,3132
52.2957869,3020
52.3312402,3032
52.3666935,2995
52.4021468,3050
52.4376001,3059
52.4730534,3091
52.5085067,3039
52.54396,3009
52.5794133,2957
52.6148666,2936
52.6503199,2977
52.6857732,3008
52.7212265,2984
52.7566798,3063
52.7921331,3077
52.8275864,3039
52.8630397,2991
52.898493,3045
52.9339463,2924
52.9693996,2925
53.0048529,3058
53.0403062,3098
53.0757595,2909
53.1112128,2942
53.1466661,3043
53.1821194,3093
53.2175727,2888
53.253026,3026
53.2884793,2971
53.3239326,2975
53.3593859,2997
53.3948392,2992
53.4302925,2992
53.4657458,3022
53.5011991,3024
53.5366524,2884
53.5721057,3015
53.607559,3126
53.6430123,2969
53.6784656,3009
53.7139189,3000
53.7493722,3044
53.7848255,3030
53.8202788,2991
53.8557321,3047
53.8911854,2950
53.9266387,3026
53.962092,3085
53.9975453,3005
54.0329986,2991
54.0684519,3052
54.1039052,2969
54.1393585,3080
54.1748118,3081
54.2102651,2987
54.2457184,2975
54.2811717,3031
54.316625,3044
54.3520783,2978
54.3875316,3020
54.4229849,3010
54.4584382,3052
54.4938915,3062
54.5293448,3070
54.5647981,2997
54.6002514,3074
54.6357047,3007
54.671158,2990
54.7066113,3006
54.7420646,3128
54.7775179,2983
54.8129712,3107
54.8484245,3115
54.8838778,3080
54.9193311,2974
54.9547844,3102
54.9902377,3155
55.025691,3115
55.0611443,3101
55.0965976,3170
55.1320509,3070
55.1675042,3020
55.2029575,3072
55.2384108,3124
55.2738641,3134
55.3093174,3109
55.3447707,3225
55.380224,3045
55.4156773,3179
55.4511306,3172
55.4865839,3140
55.5220372,3216
55.5574905,3147
55.5929438,3249
55.6283971,3240
55.6638504,3155
55.6993037,3238
55.734757,3337
55.7702103,3229
55.8056636,3302
55.8411169,3295
55.8765702,3295
55.9120235,3269
55.9474768,3379
55.9829301,3371
56.0183834,3335
56.0538367,3416
56.08929,3368
56.1247433,3550
56.1601966,3397
56.1956499,3488
56.2311032,3379
56.2665565,3396
56.3020098,3501
56.3374631,3464
56.3729164,3474
56.4083697,3480
56.443823,3761
56.4792763,3608
56.5147296,3561
56.5501829,3585
56.5856362,3682
56.6210895,3639
56.6565428,3694
56.6919961,3747
56.7274494,3766
56.7629027,3718
56.798356,3765
56.8338093,3895
56.8692626,3895
56.9047159,3836
56.9401692,3858
56.9756225,3978
57.0110758,3893
57.0465291,3989
57.0819824,3959
57.1174357,4038
57.152889,4057
57.1883423,4080
57.2237956,4104
57.2592489,4117
57.2947022,4061
57.3301555,4114
57.3656088,4144
57.4010621,4165
57.4365154,4322
57.4719687,4167
57.507422,4234
57.5428753,4338
57.5783286,4245
57.6137819,4211
57.6492352,4280
57.6846885,4356
57.7201418,4347
57.7555951,4283
57.7910484,4315
57.8265017,4203
57.861955,4333
57.8974083,4372
57.9328616,4295
57.9683149,4350
58.0037682,4257
58.0392215,4268
58.0746748,4416
58.1101281,4112
58.1455814,4122
58.1810347,4151
58.216488,4234
58.2519413,4160
58.2873946,4089
58.3228479,4106
58.3583012,4029
58.3937545,4049
58.4292078,3928
58.4646611,3938
58.5001144,4091
58.5355677,3929
58.571021,3852
58.6064743,3907
58.6419276,3899
58.6773809,3867
58.7128342,3790
58.7482875,3731
58.7837408,3878
58.8191941,3659
58.8546474,3697
58.8901007,3651
58.925554,3639
58.9610073,3696
58.9964606,3642
59.0319139,3651
59.0673672,3566
59.1028205,3597
59.1382738,3573
59.1737271,3490
59.2091804,3539
59.2446337,3663
59.280087,3576
59.3155403,3566
59.3509936,3493
59.3864469,3584
59.4219002,3510
59.4573535,3459
59.4928068,3434
59.5282601,3481
59.5637134,3476
59.5991667,3478
59.63462,3437
59.6700733,3452
59.7055266,3414
59.7409799,3428
59.7764332,3363
59.8118865,3421
59.8473398,3408
59.8827931,3327
59.9182464,3484
59.9536997,3404
59.989153,3229
60.0246063,3454
60.0600596,3394
60.0955129,3319
60.1309662,3464
60.1664195,3227
60.2018728,3363
60.2373261,3325
60.2727794,3234
60.3082327,3274
60.343686,3356
60.3791393,3311
60.4145926,3350
60.4500459,3443
60.4854992,3364
60.5209525,3264
60.5564058,3265
60.5918591,3413
60.6273124,3310
60.6627657,3367
60.698219,3340
60.7336723,3301
60.7691256,3217
60.8045789,3297
60.8400322,3357
60.8754855,3316
60.9109388,3400
60.9463921,3245
60.9818454,3301
61.0172987,3358
61.052752,3201
61.0882053,3443
61.1236586,3332
61.1591119,3256
61.1945652,3278
61.2300185,3270
61.2654718,3230
61.3009251,3214
61.3363784,3374
61.3718317,3231
61.407285,3308
61.4427383,3288
61.4781916,3260
61.5136449,3297
61.5490982,3252
61.5845515,3279
61.6200048,3337
61.6554581,3310
61.6909114,3296
61.7263647,3229
61.761818,3331
61.7972713,3229
61.8327246,3349
61.8681779,3221
61.9036312,3214
61.9390845,3227
61.9745378,3274
62.0099911,3237
62.0454444,3363
62.0808977,3298
62.116351,3333
62.1518043,3338
62.1872576,3399
62.2227109,3339
62.2581642,3320
62.2936175,3281
62.3290708,3402
62.3645241,3280
62.3999774,3315
62.4354307,3322
62.470884,3229
62.5063373,3241
62.5417906,3226
62.5772439,3251
62.6126972,3291
62.6481505,3247
62.6836038,3324
62.7190571,3236
62.7545104,3356
62.7899637,3280
62.825417,3399
62.8608703,3321
62.8963236,3389
62.9317769,3276
62.9672302,3404
63.0026835,3267
63.0381368,3371
63.0735901,3270
63.1090434,3309
63.1444967,3326
63.17995,3178
63.2154033,3227
63.2508566,3314
63.2863099,3261
63.3217632,3236
63.3572165,3286
63.3926698,3294
63.4281231,3197
63.4635764,3372
63.4990297,3291
63.534483,3352
63.5699363,3278
63.6053896,3312
63.6408429,3294
63.6762962,3353
63.7117495,3145
63.7472028,3290
63.7826561,3295
63.8181094,3398
63.8535627,3241
63.889016,3380
63.9244693,3357
63.9599226,3282
63.9953759,3344
64.0308292,3241
64.0662825,3229
64.1017358,3285
64.1371891,3199
64.1726424,3231
64.2080957,3228
64.243549,3308
64.2790023,3229
64.3144556,3343
64.3499089,3303
64.3853622,3427
64.4208155,3302
64.4562688,3341
64.4917221,3380
64.5271754,3332
64.5626287,3230
64.598082,3292
64.6335353,3381
64.6689886,3373
64.7044419,3343
64.7398952,3493
64.7753485,3339
64.8108018,3344
64.8462551,3298
64.8817084,3492
64.9171617,3395
64.952615,3401
64.9880683,3466
65.0235216,3295
65.0589749,3410
65.0944282,3457
65.1298815,3390
65.1653348,3357
65.2007881,3449
65.2362414,3461
65.2716947,3438
65.307148,3449
65.3426013,3558
65.3780546,3532
65.4135079,3447
65.4489612,3553
65.4844145,3507
65.5198678,3507
65.5553211,3569
65.5907744,3514
65.6262277,3524
65.661681,3618
65.6971343,3625
65.7325876,3618
65.7680409,3577
65.8034942,3664
65.8389475,3662
65.8744008,3639
65.9098541,3789
65.9453074,3673
65.9807607,3797
66.016214,3619
66.0516673,3777
66.0871206,3679
66.1225739,3874
66.1580272,3712
66.1934805,3787
66.2289338,3737
66.2643871,3946
66.2998404,3982
66.3352937,4067
66.370747,3960
66.4062003,3911
66.4416536,3968
66.4771069,4057
66.5125602,3993
66.5480135,4047
66.5834668,4069
66.6189201,4138
66.6543734,4113
66.6898267,4203
66.72528,4264
66.7607333,4214
66.7961866,4340
66.8316399,4368
66.8670932,4319
66.9025465,4445
66.9379998,4502
66.9734531,4446
67.0089064,4488
67.0443597,4467
67.079813,4704
67.1152663,4837
67.1507196,4758
67.1861729,4732
67.2216262,5058
67.2570795,5077
67.2925328,5042
67.3279861,5188
67.3634394,5449
67.3988927,5435
67.434346,5514
67.4697993,5620
67.5052526,5706
67.5407059,5825
67.5761592,6186
67.6116125,6190
67.6470658,6441
67.6825191,6356
67.7179724,6543
67.7534257,6876
67.788879,7054
67.8243323,7127
67.8597856,7294
67.8952389,7533
67.9306922,7725
67.9661455,7881
68.0015988,8021
68.0370521,8276
68.0725054,8465
68.1079587,8436
68.143412,8557
68.1788653,8593
68.2143186,8939
68.2497719,8802
68.2852252,8729
68.3206785,8872
68.3561318,8976
68.3915851,9020
68.4270384,8977
68.4624917,9010
68.497945,8886
68.5333983,8983
68.5688516,9132
68.6043049,9231
68.6397582,9074
68.6752115,9132
68.7106648,9115
68.7461181,9245
68.7815714,9234
68.8170247,9267
68.852478,9329
68.8879313,9363
68.9233846,9315
68.9588379,9150
68.9942912,9324
69.0297445,9275
69.0651978,9165
69.1006511,9051
69.1361044,9115
69.1715577,8901
69.207011,8720
69.2424643,8602
69.2779176,8462
69.3133709,8276
69.3488242,8060
69.3842775,7988
69.4197308,7790
69.4551841,7658
69.4906374,7425
69.5260907,7452
69.561544,7132
69.5969973,7026
69.6324506,6897
69.6679039,6594
69.7033572,6631
69.7388105,6277
69.7742638,6291
69.8097171,6114
69.8451704,5923
69.8806237,5847
69.916077,5591
69.9515303,5586
69.9869836,5499
70.0224369,5386
70.0578902,5322
70.0933435,5292
70.1287968,5296
70.1642501,5051
70.1997034,5034
70.2351567,4834
70.27061,4794
70.3060633,4924
70.3415166,4866
70.3769699,4623
70.4124232,4713
70.4478765,4574
70.4833298,4464
70.5187831,4465
70.5542364,4282
70.5896897,4374
70.625143,4310
70.6605963,4303
70.6960496,4309
70.7315029,4255
70.7669562,4149
70.8024095,4140
70.8378628,4112
70.8733161,4142
70.9087694,4183
70.9442227,4090
70.979676,3956
71.0151293,3992
71.0505826,4044
71.0860359,3930
71.1214892,3786
71.1569425,3939
71.1923958,3921
71.2278491,3840
71.2633024,3926
71.2987557,3846
71.334209,3877
71.3696623,3908
71.4051156,3896
71.4405689,3800
71.4760222,3699
71.5114755,3621
71.5469288,3763
71.5823821,3800
71.6178354,3608
71.6532887,3828
71.688742,3602
71.7241953,3704
71.7596486,3675
71.7951019,3648
71.8305552,3711
71.8660085,3599
71.9014618,3594
71.9369151,3698
71.9723684,3778
72.0078217,3649
72.043275,3641
72.0787283,3613
72.1141816,3761
72.1496349,3720
72.1850882,3644
72.2205415,3567
72.2559948,3572
72.2914481,3484
72.3269014,3574
72.3623547,3511
72.397808,3677
72.4332613,3538
72.4687146,3676
72.5041679,3601
72.5396212,3449
72.5750745,3571
72.6105278,3541
72.6459811,3573
72.6814344,3517
72.7168877,3588
72.752341,3510
72.7877943,3577
72.8232476,3512
72.8587009,3535
72.8941542,3461
72.9296075,3538
72.9650608,3533
73.0005141,3603
73.0359674,3481
73.0714207,3674
73.106874,3615
73.1423273,3614
73.1777806,3626
73.2132339,3661
73.2486872,3483
73.2841405,3603
73.3195938,3499
73.3550471,3499
73.3905004,3547
73.4259537,3520
73.461407,3442
73.4968603,3580
73.5323136,3527
73.5677669,3652
73.6032202,3644
73.6386735,3659
73.6741268,3583
73.7095801,3591
73.7450334,3539
73.7804867,3532
73.81594,3494
73.8513933,3570
73.8868466,3504
73.9222999,3585
73.9577532,3698
73.9932065,3606
74.0286598,3561
74.0641131,3599
74.0995664,3734
74.1350197,3557
74.170473,3684
74.2059263,3673
74.2413796,3693
74.2768329,3627
74.3122862,3560
74.3477395,3588
74.3831928,3656
74.4186461,3649
74.4540994,3676
74.4895527,3611
74.525006,3731
74.5604593,3697
74.5959126,3622
74.6313659,3704
74.6668192,3856
74.7022725,3732
74.7377258,3745
74.7731791,3740
74.8086324,3716
74.8440857,3804
74.879539,3686
74.9149923,3866
74.9504456,3913
74.9858989,3698
75.0213522,3805
75.0568055,3774
75.0922588,3844
75.1277121,3920
75.1631654,3855
75.1986187,3808
75.234072,3882
75.2695253,3895
75.3049786,3921
75.3404319,3900
75.3758852,3935
75.4113385,3907
75.4467918,3813
75.4822451,3986
75.5176984,3907
75.5531517,3971
75.588605,3979
75.6240583,3962
75.6595116,4106
75.6949649,3984
75.7304182,3995
75.7658715,3929
75.8013248,4177
75.8367781,4003
75.8722314,4137
75.9076847,4182
75.943138,4152
75.9785913,4303
76.0140446,4290
76.0494979,4372
76.0849512,4384
76.1204045,4309
76.1558578,4339
76.1913111,4392
76.2267644,4413
76.2622177,4382
76.297671,4410
76.3331243,4540
76.3685776,4626
76.4040309,4641
76.4394842,4599
76.4749375,4677
76.5103908,4623
76.5458441,4850
76.5812974,4806
76.6167507,4773
76.652204,4892
76.6876573,4898
76.7231106,4841
76.7585639,4894
76.7940172,4921
76.8294705,5038
76.8649238,4931
76.9003771,5007
76.9358304,5202
76.9712837,5306
77.006737,5184
77.0421903,5315
77.0776436,5298
77.1130969,5336
77.1485502,5392
77.1840035,5389
77.2194568,5296
77.2549101,5359
77.2903634,5498
77.3258167,5476
77.36127,5428
77.3967233,5462
77.4321766,5595
77.4676299,5607
77.5030832,5471
77.5385365,5694
77.5739898,5509
77.6094431,5469
77.6448964,5509
77.6803497,5595
77.715803,5691
77.7512563,5599
77.7867096,5504
77.8221629,5458
77.8576162,5562
77.8930695,5483
77.9285228,5390
77.9639761,5479
77.9994294,5413
78.0348827,5372
78.070336,5404
78.1057893,5404
78.1412426,5271
78.1766959,5225
78.2121492,5213
78.2476025,5192
78.2830558,5154
78.3185091,5049
78.3539624,5130
78.3894157,5023
78.424869,4910
78.4603223,5034
78.4957756,4932
78.5312289,4936
78.5666822,4936
78.6021355,4816
78.6375888,4809
78.6730421,4840
78.7084954,4771
78.7439487,4798
78.779402,4699
78.8148553,4761
78.8503086,4725
78.8857619,4671
78.9212152,4602
78.9566685,4713
78.9921218,4599
79.0275751,4563
79.0630284,4565
79.0984817,4689
79.133935,4580
79.1693883,4624
79.2048416,4584
79.2402949,4442
79.2757482,4532
79.3112015,4519
79.3466548,4458
79.3821081,4544
79.4175614,4480
79.4530147,4602
79.488468,4575
79.5239213,4602
79.5593746,4591
79.5948279,4456
79.6302812,4588
79.6657345,4456
79.7011878,4411
79.7366411,4510
79.7720944,4530
79.8075477,4568
79.843001,4535
79.8784543,4604
79.9139076,4571
79.9493609,4455
79.9848142,4592
80.0202675,4642
80.0557208,4531
80.0911741,4595
80.1266274,4598
80.1620807,4611
80.197534,4686
80.2329873,4790
80.2684406,4840
80.3038939,4841
80.3393472,4842
80.3748005,4681
80.4102538,4895
80.4457071,4842
80.4811604,4804
80.5166137,4994
80.552067,4953
80.5875203,5104
80.6229736,5022
80.6584269,5062
80.6938802,5122
80.7293335,5262
80.7647868,5233
80.8002401,5128
80.8356934,5318
80.8711467,5530
80.9066,5466
80.9420533,5573
80.9775066,5540
81.0129599,5716
81.0484132,5740
81.0838665,5889
81.1193198,5956
81.1547731,5917
81.1902264,6125
81.2256797,6212
81.261133,6234
81.2965863,6393
81.3320396,6448
81.3674929,6593
81.4029462,6876
81.4383995,6880
81.4738528,7033
81.5093061,7111
81.5447594,7262
81.5802127,7453
81.615666,7561
81.6511193,7686
81.6865726,7843
81.7220259,8056
81.7574792,8174
81.7929325,8423
81.8283858,8497
81.8638391,8660
81.8992924,8828
81.9347457,8896
81.970199,9006
82.0056523,9206
82.0411056,9141
82.0765589,9373
82.1120122,9264
82.1474655,9355
82.1829188,9319
82.2183721,9340
82.2538254,9430
82.2892787,9524
82.324732,9362
82.3601853,9162
82.3956386,9055
82.4310919,9003
82.4665452,9252
82.5019985,8940
82.5374518,8758
82.5729051,8702
82.6083584,8688
82.6438117,8686
82.679265,8545
82.7147183,8523
82.7501716,8615
82.7856249,8575
82.8210782,8500
82.8565315,8345
82.8919848,8642
82.9274381,8449
82.9628914,8511
82.9983447,8421
83.033798,8441
83.0692513,8735
83.1047046,8643
83.1401579,8690
83.1756112,8765
83.2110645,8798
83.2465178,8641
83.2819711,9057
83.3174244,8961
83.3528777,9214
83.388331,9169
83.4237843,9177
83.4592376,9254
83.4946909,9545
83.5301442,9542
83.5655975,9645
83.6010508,9544
83.6365041,9859
83.6719574,9697
83.7074107,9764
83.742864,9971
83.7783173,9918
83.8137706,10272
83.8492239,10041
83.8846772,10056
83.9201305,10169
83.9555838,9954
83.9910371,10217
84.0264904,9998
84.0619437,10043
84.097397,9850
84.1328503,9939
84.1683036,9851
84.2037569,9616
84.2392102,9675
84.2746635,9653
84.3101168,9625
84.3455701,9542
84.3810234,9465
84.4164767,9321
84.45193,9257
84.4873833,9095
84.5228366,9131
84.5582899,8942
84.5937432,8782
84.6291965,8737
84.6646498,8752
84.7001031,8719
84.7355564,8457
84.7710097,8597
84.806463,8521
84.8419163,8500
84.8773696,8431
84.9128229,8231
84.9482762,8356
84.9837295,8360
85.0191828,8252
85.0546361,8222
85.0900894,8252
85.1255427,8250
85.160996,8163
85.1964493,8012
85.2319026,8144
85.2673559,8122
85.3028092,7950
85.3382625,8031
85.3737158,7930
85.4091691,7901
85.4446224,7708
85.4800757,7832
85.515529,7720
85.5509823,7699
85.5864356,7587
85.6218889,7450
85.6573422,7390
85.6927955,7475
85.7282488,7162
85.7637021,7339
85.7991554,7030
85.8346087,7192
85.870062,6996
85.9055153,6950
85.9409686,6812
85.9764219,6870
86.0118752,6750
86.0473285,6794
86.0827818,6651
86.1182351,6578
86.1536884,6600
86.1891417,6633
86.224595,6430
86.2600483,6473
86.2955016,6324
86.3309549,6482
86.3664082,6189
86.4018615,6172
86.4373148,6155
86.4727681,6245
86.5082214,6320
86.5436747,6150
86.579128,6104
86.6145813,5943
86.6500346,5966
86.6854879,6059
86.7209412,5964
86.7563945,5771
86.7918478,5725
86.8273011,5796
86.8627544,5713
86.8982077,5721
86.933661,5510
86.9691143,5448
87.0045676,5471
87.0400209,5337
87.0754742,5178
87.1109275,5089
87.1463808,5033
87.1818341,5093
87.2172874,4980
87.2527407,4930
87.288194,4839
87.3236473,4871
87.3591006,4714
87.3945539,4648
87.4300072,4562
87.4654605,4676
87.5009138,4582
87.5363671,4539
87.5718204,4440
87.6072737,4437
87.642727,4384
87.6781803,4388
87.7136336,4268
87.7490869,4237
87.7845402,4380
87.8199935,4310
87.8554468,4214
87.8909001,4205
87.9263534,4136
87.9618067,4318
87.99726,4204
88.0327133,4079
88.0681666,4094
88.1036199,4010
88.1390732,3998
88.1745265,3992
88.2099798,3991
88.2454331,4121
88.2808864,3998
88.3163397,3916
88.351793,3980
88.3872463,3882
88.4226996,3914
88.4581529,3863
88.4936062,3966
88.5290595,3868
88.5645128,3811
88.5999661,3943
88.6354194,3869
88.6708727,3884
88.706326,3738
88.7417793,3729
88.7772326,3863
88.8126859,3883
88.8481392,3737
88.8835925,3804
88.9190458,3680
88.9544991,3745
88.9899524,3682
89.0254057,3689
89.060859,3677
89.0963123,3643
89.1317656,3643
89.1672189,3751
89.2026722,3718
89.2381255,3718
89.2735788,3694
89.3090321,3700
89.3444854,3717
89.3799387,3626
89.415392,3592
89.4508453,3765
89.4862986,3727
89.5217519,3672
89.5572052,3569
89.5926585,3700
89.6281118,3750
89.6635651,3781
89.6990184,3682
89.7344717,3714
89.769925,3724
89.8053783,3679
89.8408316,3725
89.8762849,3632
89.9117382,3829
89.9471915,3687
89.9826448,3737
90.0180981,3612
