10,6511
10.0354533,6593
10.0709066,6403
10.1063599,6359
10.1418132,6537
10.1772665,6326
10.2127198,6554
10.2481731,6400
10.2836264,6422
10.3190797,6302
10.354533,6311
10.3899863,6258
10.4254396,6456
10.4608929,6289
10.4963462,6305
10.5317995,6210
10.5672528,6137
10.6027061,6276
10.6381594,6228
10.6736127,6231
10.709066,5980
10.7445193,6173
10.7799726,6048
10.8154259,6063
10.8508792,6020
10.8863325,6102
10.9217858,5968
10.9572391,6013
10.9926924,5968
11.0281457,6018
11.063599,5988
11.0990523,5981
11.1345056,5860
11.1699589,5970
11.2054122,5844
11.2408655,6004
11.2763188,5923
11.3117721,5976
11.3472254,5736
11.3826787,6022
11.418132,5918
11.4535853,5916
11.4890386,5870
11.5244919,5853
11.5599452,5790
11.5953985,5749
11.6308518,5687
11.6663051,5649
11.7017584,5659
11.7372117,5757
11.772665,5677
11.8081183,5685
11.8435716,5732
11.8790249,5759
11.9144782,5534
11.9499315,5624
11.9853848,5645
12.0208381,5507
12.0562914,5483
12.0917447,5430
12.127198,5451
12.1626513,5331
12.1981046,5512
12.2335579,5541
12.2690112,5354
12.3044645,5335
12.3399178,5314
12.3753711,5370
12.4108244,5404
12.4462777,5233
12.481731,5248
12.5171843,5174
12.5526376,5171
12.5880909,5246
12.6235442,5149
12.6589975,5054
12.6944508,5147
12.7299041,5099
12.7653574,5130
12.8008107,5080
12.836264,5025
12.8717173,5084
12.9071706,5015
12.9426239,4961
12.9780772,5056
13.0135305,4927
13.0489838,4841
13.0844371,4798
13.1198904,4824
13.1553437,4793
13.190797,4761
13.2262503,4679
13.2617036,4657
13.2971569,4695
13.3326102,4684
13.3680635,4645
13.4035168,4650
13.4389701,4575
13.4744234,4473
13.5098767,4617
13.54533,4462
13.5807833,4391
13.6162366,4595
13.6516899,4417
13.6871432,4529
13.7225965,4448
13.7580498,4367
13.7935031,4365
13.8289564,4467
13.8644097,4293
13.899863,4327
13.9353163,4277
13.9707696,4151
14.0062229,4124
14.0416762,4258
14.0771295,4162
14.1125828,4247
14.1480361,4162
14.1834894,4091
14.2189427,4019
14.254396,4206
14.2898493,4025
14.3253026,4102
14.3607559,4057
14.3962092,4078
14.4316625,4092
14.4671158,4058
14.5025691,4112
14.5380224,3940
14.5734757,3960
14.608929,4073
14.6443823,4081
14.6798356,4055
14.7152889,3912
14.7507422,3879
14.7861955,3994
14.8216488,3940
14.8571021,4023
14.8925554,3901
14.9280087,3939
14.963462,3876
14.9989153,3975
15.0343686,3941
15.0698219,3892
15.1052752,3855
15.1407285,3968
15.1761818,3766
15.2116351,3940
15.2470884,3836
15.2825417,3803
15.317995,3918
15.3534483,3887
15.3889016,3863
15.4243549,3914
15.4598082,3896
15.4952615,3905
15.5307148,3715
15.5661681,3866
15.6016214,3824
15.6370747,3820
15.672528,3857
15.7079813,3904
15.7434346,3757
15.7788879,3856
15.8143412,3859
15.8497945,3895
15.8852478,3831
15.9207011,3885
15.9561544,3877
15.9916077,3739
16.027061,3818
16.0625143,3799
16.0979676,3866
16.1334209,3835
16.1688742,3737
16.2043275,3597
16.2397808,3846
16.2752341,3753
16.3106874,3770
16.3461407,3910
16.381594,3809
16.4170473,3795
16.4525006,3689
16.4879539,3853
16.5234072,3769
16.5588605,3618
16.5943138,3749
16.6297671,3781
16.6652204,3730
16.7006737,3725
16.736127,3565
16.7715803,3658
16.8070336,3689
16.8424869,3731
16.8779402,3801
16.9133935,3613
16.9488468,3697
16.9843001,3743
17.0197534,3644
17.0552067,3647
17.09066,3639
17.1261133,3657
17.1615666,3693
17.1970199,3724
17.2324732,3687
17.2679265,3606
17.3033798,3634
17.3388331,3610
17.3742864,3585
17.4097397,3555
17.445193,3704
17.4806463,3613
17.5160996,3638
17.5515529,3598
17.5870062,3513
17.6224595,3696
17.6579128,3480
17.6933661,3573
17.7288194,3551
17.7642727,3542
17.799726,3603
17.8351793,3557
17.8706326,3596
17.9060859,3458
17.9415392,3497
17.9769925,3612
18.0124458,3604
18.0478991,3374
18.0833524,3594
18.1188057,3605
18.154259,3542
18.1897123,3541
18.2251656,3632
18.2606189,3454
18.2960722,3480
18.3315255,3516
18.3669788,3585
18.4024321,3446
18.4378854,3528
18.4733387,3593
18.508792,3423
18.5442453,3386
18.5796986,3477
18.6151519,3401
18.6506052,3454
18.6860585,3508
18.7215118,3386
18.7569651,3527
18.7924184,3554
18.8278717,3478
18.863325,3482
18.8987783,3360
18.9342316,3450
18.9696849,3388
19.0051382,3476
19.0405915,3435
19.0760448,3521
19.1114981,3393
19.1469514,3440
19.1824047,3378
19.217858,3430
19.2533113,3490
19.2887646,3376
19.3242179,3393
19.3596712,3393
19.3951245,3333
19.4305778,3325
19.4660311,3398
19.5014844,3317
19.5369377,3366
19.572391,3470
19.6078443,3426
19.6432976,3299
19.6787509,3438
19.7142042,3372
19.7496575,3380
19.7851108,3342
19.8205641,3379
19.8560174,3430
19.8914707,3365
19.926924,3437
19.9623773,3335
19.9978306,3414
20.0332839,3259
20.0687372,3363
20.1041905,3337
20.1396438,3317
20.1750971,3349
20.2105504,3413
20.2460037,3317
20.281457,3233
20.3169103,3274
20.3523636,3315
20.3878169,3253
20.4232702,3138
20.4587235,3366
20.4941768,3293
20.5296301,3262
20.5650834,3330
20.6005367,3316
20.63599,3235
20.6714433,3226
20.7068966,3255
20.7423499,3330
20.7778032,3177
20.8132565,3235
20.8487098,3256
20.8841631,3199
20.9196164,3264
20.9550697,3308
20.990523,3325
21.0259763,3280
21.0614296,3246
21.0968829,3217
21.1323362,3205
21.1677895,3249
21.2032428,3130
21.2386961,3256
21.2741494,3212
21.3096027,3237
21.345056,3187
21.3805093,3134
21.4159626,3225
21.4514159,3177
21.4868692,3105
21.5223225,3242
21.5577758,3149
21.5932291,3167
21.6286824,3178
21.6641357,3064
21.699589,3228
21.7350423,3164
21.7704956,3167
21.8059489,3183
21.8414022,3158
21.8768555,3028
21.9123088,3118
21.9477621,3149
21.9832154,3130
22.0186687,3126
22.054122,3066
22.0895753,3144
22.1250286,3087
22.1604819,3211
22.1959352,3036
22.2313885,3161
22.2668418,3115
22.3022951,3144
22.3377484,2977
22.3732017,3015
22.408655,3126
22.4441083,3091
22.4795616,3012
22.5150149,3108
22.5504682,3121
22.5859215,2994
22.6213748,3035
22.6568281,3238
22.6922814,3168
22.7277347,3087
22.763188,3048
22.7986413,3108
22.8340946,3178
22.8695479,3104
22.9050012,3096
22.9404545,3027
22.9759078,3013
23.0113611,3029
23.0468144,2992
23.0822677,3034
23.117721,3044
23.1531743,3049
23.1886276,2993
23.2240809,2995
23.2595342,2931
23.2949875,2878
23.3304408,2980
23.3658941,3006
23.4013474,3059
23.4368007,2950
23.472254,3032
23.5077073,3022
23.5431606,3043
23.5786139,3047
23.6140672,3017
23.6495205,3001
23.6849738,3107
23.7204271,2958
23.7558804,2945
23.7913337,2835
23.826787,2926
23.8622403,2930
23.8976936,2886
23.9331469,2981
23.9686002,2999
24.0040535,2944
24.0395068,3088
24.0749601,2912
24.1104134,3004
24.1458667,2966
24.18132,2798
24.2167733,2901
24.2522266,2910
24.2876799,2977
24.3231332,2896
24.3585865,2962
24.3940398,2896
24.4294931,2954
24.4649464,2817
24.5003997,2835
24.535853,2852
24.5713063,2838
24.6067596,2938
24.6422129,2931
24.6776662,2782
24.7131195,2908
24.7485728,2897
24.7840261,2822
24.8194794,2836
24.8549327,2954
24.890386,2923
24.9258393,2914
24.9612926,2976
24.9967459,2877
25.0321992,2816
25.0676525,2967
25.1031058,2985
25.1385591,2762
25.1740124,2930
25.2094657,2846
25.244919,2899
25.2803723,2878
25.3158256,2837
25.3512789,2764
25.3867322,2821
25.4221855,2839
25.4576388,2804
25.4930921,2887
25.5285454,2892
25.5639987,2831
25.599452,2793
25.6349053,2688
25.6703586,2875
25.7058119,2827
25.7412652,2799
25.7767185,2865
25.8121718,2851
25.8476251,2824
25.8830784,2837
25.9185317,2786
25.953985,2802
25.9894383,2749
26.0248916,2719
26.0603449,2802
26.0957982,2716
26.1312515,2773
26.1667048,2731
26.2021581,2680
26.2376114,2735
26.2730647,2806
26.308518,2695
26.3439713,2777
26.3794246,2812
26.4148779,2784
26.4503312,2785
26.4857845,2791
26.5212378,2738
26.5566911,2681
26.5921444,2847
26.6275977,2814
26.663051,2710
26.6985043,2798
26.7339576,2658
26.7694109,2760
26.8048642,2712
26.8403175,2760
26.8757708,2706
26.9112241,2608
26.9466774,2728
26.9821307,2736
27.017584,2695
27.0530373,2712
27.0884906,2740
27.1239439,2721
27.1593972,2707
27.1948505,2729
27.2303038,2713
27.2657571,2706
27.3012104,2760
27.3366637,2703
27.372117,2763
27.4075703,2724
27.4430236,2717
27.4784769,2748
27.5139302,2607
27.5493835,2662
27.5848368,2716
27.6202901,2719
27.6557434,2628
27.6911967,2701
27.72665,2739
27.7621033,2618
27.7975566,2707
27.8330099,2713
27.8684632,2638
27.9039165,2653
27.9393698,2700
27.9748231,2619
28.0102764,2704
28.0457297,2646
28.081183,2769
28.1166363,2772
28.1520896,2756
28.1875429,2783
28.2229962,2723
28.2584495,2724
28.2939028,2674
28.3293561,2657
28.3648094,2677
28.4002627,2675
28.435716,2673
28.4711693,2688
28.5066226,2700
28.5420759,2601
28.5775292,2619
28.6129825,2677
28.6484358,2629
28.6838891,2655
28.7193424,2681
28.7547957,2594
28.790249,2590
28.8257023,2699
28.8611556,2653
28.8966089,2597
28.9320622,2688
28.9675155,2580
29.0029688,2679
29.0384221,2685
29.0738754,2796
29.1093287,2903
29.144782,2897
29.1802353,2889
29.2156886,2724
29.2511419,2609
29.2865952,2672
29.3220485,2746
29.3575018,2687
29.3929551,2698
29.4284084,2647
29.4638617,2580
29.499315,2557
29.5347683,2629
29.5702216,2630
29.6056749,2613
29.6411282,2562
29.6765815,2646
29.7120348,2520
29.7474881,2592
29.7829414,2624
29.8183947,2586
29.853848,2613
29.8893013,2546
29.9247546,2571
29.9602079,2535
29.9956612,2534
30.0311145,2557
30.0665678,2635
30.1020211,2521
30.1374744,2708
30.1729277,2610
30.208381,2558
30.2438343,2591
30.2792876,2627
30.3147409,2549
30.3501942,2537
30.3856475,2646
30.4211008,2567
30.4565541,2554
30.4920074,2590
30.5274607,2606
30.562914,2621
30.5983673,2652
30.6338206,2655
30.6692739,2544
30.7047272,2607
30.7401805,2563
30.7756338,2486
30.8110871,2597
30.8465404,2424
30.8819937,2596
30.917447,2499
30.9529003,2488
30.9883536,2550
31.0238069,2424
31.0592602,2561
31.0947135,2564
31.1301668,2622
31.1656201,2574
31.2010734,2397
31.2365267,2601
31.27198,2580
31.3074333,2478
31.3428866,2517
31.3783399,2495
31.4137932,2604
31.4492465,2598
31.4846998,2589
31.5201531,2558
31.5556064,2590
31.5910597,2517
31.626513,2575
31.6619663,2608
31.6974196,2578
31.7328729,2509
31.7683262,2519
31.8037795,2575
31.8392328,2554
31.8746861,2516
31.9101394,2486
31.9455927,2507
31.981046,2395
32.0164993,2508
32.0519526,2551
32.0874059,2465
32.1228592,2481
32.1583125,2509
32.1937658,2576
32.2292191,2570
32.2646724,2527
32.3001257,2542
32.335579,2502
32.3710323,2619
32.4064856,2521
32.4419389,2474
32.4773922,2487
32.5128455,2516
32.5482988,2505
32.5837521,2531
32.6192054,2614
32.6546587,2468
32.690112,2517
32.7255653,2496
32.7610186,2482
32.7964719,2513
32.8319252,2445
32.8673785,2517
32.9028318,2520
32.9382851,2398
32.9737384,2446
33.0091917,2401
33.044645,2469
33.0800983,2448
33.1155516,2410
33.1510049,2428
33.1864582,2453
33.2219115,2451
33.2573648,2494
33.2928181,2462
33.3282714,2585
33.3637247,2476
33.399178,2461
33.4346313,2480
33.4700846,2480
33.5055379,2431
33.5409912,2477
33.5764445,2533
33.6118978,2374
33.6473511,2424
33.6828044,2404
33.7182577,2418
33.753711,2421
33.7891643,2443
33.8246176,2438
33.8600709,2470
33.8955242,2372
33.9309775,2486
33.9664308,2459
34.0018841,2429
34.0373374,2361
34.0727907,2411
34.108244,2435
34.1436973,2536
34.1791506,2448
34.2146039,2514
34.2500572,2404
34.2855105,2534
34.3209638,2496
34.3564171,2535
34.3918704,2590
34.4273237,2399
34.462777,2452
34.4982303,2403
34.5336836,2382
34.5691369,2438
34.6045902,2412
34.6400435,2507
34.6754968,2424
34.7109501,2423
34.7464034,2495
34.7818567,2413
34.81731,2507
34.8527633,2341
34.8882166,2488
34.9236699,2392
34.9591232,2427
34.9945765,2399
35.0300298,2519
35.0654831,2368
35.1009364,2537
35.1363897,2508
35.171843,2527
35.2072963,2561
35.2427496,2461
35.2782029,2491
35.3136562,2519
35.3491095,2468
35.3845628,2473
35.4200161,2419
35.4554694,2499
35.4909227,2495
35.526376,2463
35.5618293,2561
35.5972826,2607
35.6327359,2435
35.6681892,2500
35.7036425,2444
35.7390958,2447
35.7745491,2439
35.8100024,2569
35.8454557,2508
35.880909,2456
35.9163623,2478
35.9518156,2436
35.9872689,2424
36.0227222,2453
36.0581755,2449
36.0936288,2436
36.1290821,2426
36.1645354,2437
36.1999887,2520
36.235442,2499
36.2708953,2557
36.3063486,2543
36.3418019,2455
36.3772552,2559
36.4127085,2428
36.4481618,2518
36.4836151,2488
36.5190684,2464
36.5545217,2531
36.589975,2455
36.6254283,2471
36.6608816,2478
36.6963349,2560
36.7317882,2524
36.7672415,2467
36.8026948,2577
36.8381481,2574
36.8736014,2519
36.9090547,2647
36.944508,2612
36.9799613,2610
37.0154146,2693
37.0508679,2598
37.0863212,2618
37.1217745,2666
37.1572278,2806
37.1926811,2645
37.2281344,2667
37.2635877,2733
37.299041,2776
37.3344943,2755
37.3699476,2894
37.4054009,2961
37.4408542,2841
37.4763075,3007
37.5117608,2971
37.5472141,3019
37.5826674,3096
37.6181207,3074
37.653574,3280
37.6890273,3347
37.7244806,3545
37.7599339,3623
37.7953872,3849
37.8308405,4110
37.8662938,4412
37.9017471,4750
37.9372004,5239
37.9726537,5959
38.008107,6969
38.0435603,7724
38.0790136,8743
38.1144669,10371
38.1499202,11434
38.1853735,12789
38.2208268,13627
38.2562801,14430
38.2917334,14632
38.3271867,14162
38.36264,13871
38.3980933,12984
38.4335466,11482
38.4689999,10193
38.5044532,8986
38.5399065,7796
38.5753598,6803
38.6108131,6036
38.6462664,5183
38.6817197,4791
38.717173,4382
38.7526263,4155
38.7880796,3832
38.8235329,3657
38.8589862,3598
38.8944395,3402
38.9298928,3269
38.9653461,3171
39.0007994,3144
39.0362527,3011
39.071706,3091
39.1071593,2947
39.1426126,3017
39.1780659,2987
39.2135192,2976
39.2489725,2897
39.2844258,2894
39.3198791,2951
39.3553324,2880
39.3907857,2837
39.426239,2981
39.4616923,2851
39.4971456,2853
39.5325989,2830
39.5680522,2840
39.6035055,2707
39.6389588,2756
39.6744121,2722
39.7098654,2800
39.7453187,2729
39.780772,2757
39.8162253,2834
39.8516786,2695
39.8871319,2642
39.9225852,2745
39.9580385,2689
39.9934918,2740
40.0289451,2706
40.0643984,2808
40.0998517,2760
40.135305,2726
40.1707583,2706
40.2062116,2708
40.2416649,2669
40.2771182,2703
40.3125715,2732
40.3480248,2715
40.3834781,2683
40.4189314,2779
40.4543847,2823
40.489838,2799
40.5252913,2895
40.5607446,2781
40.5961979,2843
40.6316512,2847
40.6671045,2844
40.7025578,2867
40.7380111,2859
40.7734644,2822
40.8089177,2956
40.844371,2940
40.8798243,3000
40.9152776,3011
40.9507309,3045
40.9861842,2932
41.0216375,3084
41.0570908,3015
41.0925441,3175
41.1279974,3189
41.1634507,3275
41.198904,3337
41.2343573,3406
41.2698106,3477
41.3052639,3548
41.3407172,3576
41.3761705,3859
41.4116238,3911
41.4470771,4080
41.4825304,4310
41.5179837,4603
41.553437,5060
41.5888903,5511
41.6243436,6084
41.6597969,6788
41.6952502,7560
41.7307035,8605
41.7661568,9831
41.8016101,11114
41.8370634,12225
41.8725167,13570
41.90797,14556
41.9434233,15184
41.9788766,15740
42.0143299,15496
42.0497832,15015
42.0852365,14087
42.1206898,13084
42.1561431,11799
42.1915964,10522
42.2270497,9400
42.262503,8392
42.2979563,7390
42.3334096,6731
42.3688629,6093
42.4043162,5762
42.4397695,5365
42.4752228,5239
42.5106761,5006
42.5461294,4792
42.5815827,4731
42.617036,4662
42.6524893,4608
42.6879426,4510
42.7233959,4642
42.7588492,4588
42.7943025,4486
42.8297558,4854
42.8652091,4727
42.9006624,4747
42.9361157,5035
42.971569,5003
43.0070223,4957
43.0424756,5181
43.0779289,5484
43.1133822,5776
43.1488355,5959
43.1842888,6100
43.2197421,6524
43.2551954,7030
43.2906487,7477
43.326102,8086
43.3615553,8779
43.3970086,9799
43.4324619,10920
43.4679152,12639
43.5033685,14348
43.5388218,16376
43.5742751,19285
43.6097284,22728
43.6451817,26609
43.680635,31717
43.7160883,36566
43.7515416,42340
43.7869949,46644
43.8224482,50824
43.8579015,53756
43.8933548,54686
43.9288081,53733
43.9642614,52075
43.9997147,47737
44.035168,43290
44.0706213,38334
44.1060746,32884
44.1415279,28099
44.1769812,23723
44.2124345,19835
44.2478878,16704
44.2833411,14411
44.3187944,12150
44.3542477,10651
44.389701,9439
44.4251543,8408
44.4606076,7918
44.4960609,7118
44.5315142,6686
44.5669675,6166
44.6024208,5739
44.6378741,5300
44.6733274,5181
44.7087807,4826
44.744234,4827
44.7796873,4484
44.8151406,4439
44.8505939,4338
44.8860472,4147
44.9215005,4041
44.9569538,3921
44.9924071,3740
45.0278604,3827
45.0633137,3681
45.098767,3645
45.1342203,3554
45.1696736,3484
45.2051269,3552
45.2405802,3472
45.2760335,3517
45.3114868,3364
45.3469401,3346
45.3823934,3293
45.4178467,3295
45.4533,3201
45.4887533,3280
45.5242066,3054
45.5596599,3159
45.5951132,3058
45.6305665,3035
45.6660198,2990
45.7014731,3003
45.7369264,3016
45.7723797,2998
45.807833,2934
45.8432863,2951
45.8787396,2901
45.9141929,2868
45.9496462,2814
45.9850995,2749
46.0205528,2872
46.0560061,2863
46.0914594,2765
46.1269127,2759
46.162366,2753
46.1978193,2773
46.2332726,2931
46.2687259,2833
46.3041792,2773
46.3396325,2710
46.3750858,2807
46.4105391,2787
46.4459924,2769
46.4814457,2718
46.516899,2745
46.5523523,2735
46.5878056,2789
46.6232589,2737
46.6587122,2657
46.6941655,2669
46.7296188,2706
46.7650721,2631
46.8005254,2734
46.8359787,2653
46.871432,2743
46.9068853,2624
46.9423386,2688
46.9777919,2729
47.0132452,2698
47.0486985,2654
47.0841518,2714
47.1196051,2535
47.1550584,2621
47.1905117,2670
47.225965,2724
47.2614183,2594
47.2968716,2639
47.3323249,2654
47.3677782,2595
47.4032315,2684
47.4386848,2583
47.4741381,2497
47.5095914,2658
47.5450447,2558
47.580498,2611
47.6159513,2554
47.6514046,2555
47.6868579,2527
47.7223112,2609
47.7577645,2580
47.7932178,2591
47.8286711,2598
47.8641244,2580
47.8995777,2638
47.935031,2561
47.9704843,2484
48.0059376,2454
48.0413909,2638
48.0768442,2542
48.1122975,2464
48.1477508,2491
48.1832041,2518
48.2186574,2645
48.2541107,2506
48.289564,2487
48.3250173,2615
48.3604706,2577
48.3959239,2604
48.4313772,2487
48.4668305,2542
48.5022838,2586
48.5377371,2520
48.5731904,2604
48.6086437,2529
48.644097,2463
48.6795503,2502
48.7150036,2486
48.7504569,2496
48.7859102,2542
48.8213635,2466
48.8568168,2553
48.8922701,2489
48.9277234,2530
48.9631767,2552
48.99863,2522
49.0340833,2445
49.0695366,2462
49.1049899,2476
49.1404432,2494
49.1758965,2453
49.2113498,2502
49.2468031,2438
49.2822564,2548
49.3177097,2451
49.353163,2492
49.3886163,2465
49.4240696,2399
49.4595229,2458
49.4949762,2576
49.5304295,2466
49.5658828,2444
49.6013361,2463
49.6367894,2526
49.6722427,2572
49.707696,2435
49.7431493,2450
49.7786026,2425
49.8140559,2480
49.8495092,2404
49.8849625,2438
49.9204158,2473
49.9558691,2531
49.9913224,2526
50.0267757,2494
50.062229,2504
50.0976823,2453
50.1331356,2549
50.1685889,2488
50.2040422,2463
50.2394955,2436
50.2749488,2511
50.3104021,2481
50.3458554,2458
50.3813087,2496
50.416762,2318
50.4522153,2487
50.4876686,2455
50.5231219,2521
50.5585752,2419
50.5940285,2502
50.6294818,2486
50.6649351,2449
50.7003884,2544
50.7358417,2457
50.771295,2357
50.8067483,2476
50.8422016,2469
50.8776549,2423
50.9131082,2483
50.9485615,2440
50.9840148,2490
51.0194681,2384
51.0549214,2537
51.0903747,2427
51.125828,2458
51.1612813,2380
51.1967346,2472
51.2321879,2490
51.2676412,2503
51.3030945,2412
51.3385478,2448
51.3740011,2443
51.4094544,2393
51.4449077,2384
51.480361,2502
51.5158143,2425
51.5512676,2485
51.5867209,2419
51.6221742,2436
51.6576275,2377
51.6930808,2405
51.7285341,2377
51.7639874,2481
51.7994407,2496
51.834894,2432
51.8703473,2421
51.9058006,2371
51.9412539,2444
51.9767072,2375
52.0121605,2474
52.0476138,2499
52.0830671,2424
52.1185204,2466
52.1539737,2419
52.189427,2546
52.2248803,2508
52.2603336,2527
52.2957869,2433
52.3312402,2491
52.3666935,2441
52.4021468,2453
52.4376001,2485
52.4730534,2480
52.5085067,2457
52.54396,2402
52.5794133,2545
52.6148666,2536
52.6503199,2474
52.6857732,2507
52.7212265,2417
52.7566798,2395
52.7921331,2408
52.8275864,2483
52.8630397,2478
52.898493,2384
52.9339463,2472
52.9693996,2488
53.0048529,2485
53.0403062,2502
53.0757595,2545
53.1112128,2491
53.1466661,2439
53.1821194,2502
53.2175727,2398
53.253026,2419
53.2884793,2469
53.3239326,2537
53.3593859,2439
53.3948392,2438
53.4302925,2448
53.4657458,2532
53.5011991,2478
53.5366524,2509
53.5721057,2470
53.607559,2458
53.6430123,2428
53.6784656,2494
53.7139189,2457
53.7493722,2430
53.7848255,2510
53.8202788,2444
53.8557321,2430
53.8911854,2491
53.9266387,2549
53.962092,2603
53.9975453,2426
54.0329986,2471
54.0684519,2467
54.1039052,2445
54.1393585,2492
54.1748118,2470
54.2102651,2472
54.2457184,2366
54.2811717,2464
54.316625,2423
54.3520783,2509
54.3875316,2449
54.4229849,2574
54.4584382,2533
54.4938915,2476
54.5293448,2456
54.5647981,2471
54.6002514,2488
54.6357047,2511
54.671158,2423
54.7066113,2439
54.7420646,2505
54.7775179,2590
54.8129712,2537
54.8484245,2527
54.8838778,2579
54.9193311,2538
54.9547844,2466
54.9902377,2551
55.025691,2544
55.0611443,2426
55.0965976,2543
55.1320509,2491
55.1675042,2523
55.2029575,2578
55.2384108,2529
55.2738641,2601
55.3093174,2530
55.3447707,2613
55.380224,2499
55.4156773,2575
55.4511306,2601
55.4865839,2514
55.5220372,2549
55.5574905,2560
55.5929438,2685
55.6283971,2542
55.6638504,2586
55.6993037,2636
55.734757,2530
55.7702103,2688
55.8056636,2794
55.8411169,2710
55.8765702,2812
55.9120235,2718
55.9474768,2729
55.9829301,2626
56.0183834,2820
56.0538367,2661
56.08929,2703
56.1247433,2832
56.1601966,2859
56.1956499,2785
56.2311032,2738
56.2665565,2777
56.3020098,2838
56.3374631,2786
56.3729164,2799
56.4083697,2843
56.443823,2836
56.4792763,2882
56.5147296,2822
56.5501829,2850
56.5856362,2750
56.6210895,2864
56.6565428,2849
56.6919961,2803
56.7274494,2929
56.7629027,2783
56.798356,2916
56.8338093,2891
56.8692626,2893
56.9047159,2939
56.9401692,3033
56.9756225,3007
57.0110758,3060
57.0465291,3071
57.0819824,3104
57.1174357,2958
57.152889,3069
57.1883423,3002
57.2237956,3093
57.2592489,3171
57.2947022,3093
57.3301555,3164
57.3656088,3429
57.4010621,3278
57.4365154,3412
57.4719687,3486
57.507422,3453
57.5428753,3663
57.5783286,3746
57.6137819,3955
57.6492352,4164
57.6846885,4210
57.7201418,4471
57.7555951,4742
57.7910484,5061
57.8265017,5561
57.861955,5806
57.8974083,6468
57.9328616,7003
57.9683149,7481
58.0037682,8290
58.0392215,8837
58.0746748,9193
58.1101281,9674
58.1455814,9982
58.1810347,10233
58.216488,9908
58.2519413,9678
58.2873946,9348
58.3228479,8916
58.3583012,8380
58.3937545,7658
58.4292078,7165
58.4646611,6580
58.5001144,6150
58.5355677,5648
58.571021,5122
58.6064743,4842
58.6419276,4585
58.6773809,4350
58.7128342,4072
58.7482875,4118
58.7837408,3862
58.8191941,3724
58.8546474,3639
58.8901007,3527
58.925554,3404
58.9610073,3483
58.9964606,3336
59.0319139,3283
59.0673672,3287
59.1028205,3337
59.1382738,3142
59.1737271,3200
59.2091804,3237
59.2446337,3169
59.280087,3141
59.3155403,3029
59.3509936,3087
59.3864469,3042
59.4219002,3079
59.4573535,3026
59.4928068,3031
59.5282601,3074
59.5637134,3044
59.5991667,3079
59.63462,2915
59.6700733,2928
59.7055266,2948
59.7409799,2930
59.7764332,2951
59.8118865,2983
59.8473398,3068
59.8827931,3054
59.9182464,2947
59.9536997,3073
59.989153,3001
60.0246063,3028
60.0600596,2908
60.0955129,2989
60.1309662,3006
60.1664195,2865
60.2018728,2910
60.2373261,2996
60.2727794,2998
60.3082327,2983
60.343686,2974
60.3791393,2924
60.4145926,2951
60.4500459,2911
60.4854992,3020
60.5209525,3008
60.5564058,2951
60.5918591,2988
60.6273124,2935
60.6627657,3018
60.698219,2984
60.7336723,2979
60.7691256,2986
60.8045789,2906
60.8400322,3038
60.8754855,2946
60.9109388,3025
60.9463921,2910
60.9818454,2935
61.0172987,2919
61.052752,2936
61.0882053,3001
61.1236586,2955
61.1591119,2984
61.1945652,2962
61.2300185,3060
61.2654718,3008
61.3009251,2930
61.3363784,2938
61.3718317,2988
61.407285,2970
61.4427383,2893
61.4781916,3057
61.5136449,3013
61.5490982,3082
61.5845515,2856
61.6200048,2947
61.6554581,3072
61.6909114,2960
61.7263647,3026
61.761818,3084
61.7972713,3005
61.8327246,3016
61.8681779,3077
61.9036312,2987
61.9390845,3062
61.9745378,3087
62.0099911,3060
62.0454444,3025
62.0808977,3003
62.116351,3047
62.1518043,3084
62.1872576,3056
62.2227109,3032
62.2581642,3100
62.2936175,3136
62.3290708,3156
62.3645241,2973
62.3999774,3078
62.4354307,3053
62.470884,3068
62.5063373,3128
62.5417906,3122
62.5772439,3035
62.6126972,3075
62.6481505,3192
62.6836038,3083
62.7190571,3017
62.7545104,2953
62.7899637,3060
62.825417,3130
62.8608703,3082
62.8963236,3101
62.9317769,3086
62.9672302,3157
63.0026835,3028
63.0381368,3002
63.0735901,3027
63.1090434,3047
63.1444967,3008
63.17995,2992
63.2154033,2968
63.2508566,3017
63.2863099,3096
63.3217632,2976
63.3572165,3081
63.3926698,3063
63.4281231,2967
63.4635764,2962
63.4990297,2951
63.534483,3023
63.5699363,2950
63.6053896,2982
63.6408429,2988
63.6762962,3019
63.7117495,2909
63.7472028,2966
63.7826561,3040
63.8181094,2998
63.8535627,3000
63.889016,2941
63.9244693,2931
63.9599226,2948
63.9953759,3042
64.0308292,2982
64.0662825,3056
64.1017358,2943
64.1371891,3010
64.1726424,2995
64.2080957,2875
64.243549,2958
64.2790023,2956
64.3144556,3016
64.3499089,2811
64.3853622,2924
64.4208155,2881
64.4562688,2885
64.4917221,2882
64.5271754,2991
64.5626287,2989
64.598082,2851
64.6335353,2809
64.6689886,2881
64.7044419,2925
64.7398952,2917
64.7753485,2878
64.8108018,2867
64.8462551,2846
64.8817084,3008
64.9171617,2854
64.952615,2906
64.9880683,2925
65.0235216,2861
65.0589749,2912
65.0944282,2935
65.1298815,2919
65.1653348,2864
65.2007881,2916
65.2362414,2856
65.2716947,2873
65.307148,2975
65.3426013,2883
65.3780546,2941
65.4135079,2949
65.4489612,2786
65.4844145,2894
65.5198678,2844
65.5553211,2880
65.5907744,2821
65.6262277,2873
65.661681,2863
65.6971343,2872
65.7325876,2838
65.7680409,2822
65.8034942,2876
65.8389475,2847
65.8744008,2871
65.9098541,2844
65.9453074,2836
65.9807607,2837
66.016214,2849
66.0516673,2816
66.0871206,2784
66.1225739,2954
66.1580272,2890
66.1934805,2841
66.2289338,2860
66.2643871,2901
66.2998404,2875
66.3352937,2877
66.370747,2837
66.4062003,2788
66.4416536,2950
66.4771069,2826
66.5125602,2866
66.5480135,2879
66.5834668,2866
66.6189201,2873
66.6543734,2897
66.6898267,2853
66.72528,2830
66.7607333,2905
66.7961866,2882
66.8316399,2834
66.8670932,2860
66.9025465,3021
66.9379998,2936
66.9734531,2923
67.0089064,2849
67.0443597,3006
67.079813,2890
67.1152663,2975
67.1507196,3001
67.1861729,2898
67.2216262,2799
67.2570795,2924
67.2925328,2867
67.3279861,3020
67.3634394,3048
67.3988927,2940
67.434346,3041
67.4697993,2917
67.5052526,2897
67.5407059,2950
67.5761592,2905
67.6116125,2948
67.6470658,3067
67.6825191,3033
67.7179724,2983
67.7534257,3077
67.788879,2946
67.8243323,3032
67.8597856,3010
67.8952389,3045
67.9306922,3101
67.9661455,3017
68.0015988,3107
68.0370521,3113
68.0725054,3160
68.1079587,3151
68.143412,3133
68.1788653,3070
68.2143186,3207
68.2497719,3152
68.2852252,3245
68.3206785,3205
68.3561318,3371
68.3915851,3348
68.4270384,3471
68.4624917,3440
68.497945,3564
68.5333983,3521
68.5688516,3631
68.6043049,3788
68.6397582,3892
68.6752115,4010
68.7106648,4149
68.7461181,4255
68.7815714,4679
68.8170247,4925
68.852478,5427
68.8879313,5438
68.9233846,5938
68.9588379,6307
68.9942912,6823
69.0297445,7611
69.0651978,8625
69.1006511,9329
69.1361044,10166
69.1715577,11105
69.207011,12246
69.2424643,12881
69.2779176,13449
69.3133709,13675
69.3488242,13992
69.3842775,13528
69.4197308,12792
69.4551841,12466
69.4906374,11719
69.5260907,10949
69.561544,9865
69.5969973,9034
69.6324506,8133
69.6679039,7426
69.7033572,6703
69.7388105,5933
69.7742638,5545
69.8097171,5056
69.8451704,4908
69.8806237,4443
69.916077,4219
69.9515303,4063
69.9869836,3945
70.0224369,3932
70.0578902,3664
70.0933435,3467
70.1287968,3444
70.1642501,3432
70.1997034,3426
70.2351567,3355
70.27061,3254
70.3060633,3292
70.3415166,3181
70.3769699,3180
70.4124232,3147
70.4478765,3324
70.4833298,3202
70.5187831,3163
70.5542364,3078
70.5896897,3005
70.625143,3028
70.6605963,2994
70.6960496,2998
70.7315029,2868
70.7669562,3049
70.8024095,3046
70.8378628,2987
70.8733161,2989
70.9087694,2921
70.9442227,2919
70.979676,2912
71.0151293,2922
71.0505826,2882
71.0860359,2961
71.1214892,3036
71.1569425,2881
71.1923958,2965
71.2278491,2937
71.2633024,2821
71.2987557,2829
71.334209,2939
71.3696623,2844
71.4051156,2712
71.4405689,2845
71.4760222,2944
71.5114755,2895
71.5469288,2901
71.5823821,2843
71.6178354,2907
71.6532887,2831
71.688742,2845
71.7241953,2856
71.7596486,2781
71.7951019,2973
71.8305552,2933
71.8660085,2941
71.9014618,2863
71.9369151,2861
71.9723684,2774
72.0078217,2839
72.043275,2862
72.0787283,2896
72.1141816,2802
72.1496349,2772
72.1850882,2791
72.2205415,2843
72.2559948,2824
72.2914481,2788
72.3269014,2854
72.3623547,2887
72.397808,2790
72.4332613,2841
72.4687146,2814
72.5041679,2954
72.5396212,2897
72.5750745,2910
72.6105278,2805
72.6459811,2702
72.6814344,2815
72.7168877,2788
72.752341,2874
72.7877943,2825
72.8232476,2837
72.8587009,2887
72.8941542,2775
72.9296075,2850
72.9650608,2838
73.0005141,2816
73.0359674,2834
73.0714207,2738
73.106874,2792
73.1423273,2839
73.1777806,2756
73.2132339,2822
73.2486872,2857
73.2841405,2903
73.3195938,2864
73.3550471,2800
73.3905004,2731
73.4259537,2791
73.461407,2740
73.4968603,2813
73.5323136,2965
73.5677669,2890
73.6032202,2836
73.6386735,2873
73.6741268,2756
73.7095801,2939
73.7450334,2844
73.7804867,2797
73.81594,2842
73.8513933,2923
73.8868466,2895
73.9222999,2782
73.9577532,2932
73.9932065,2815
74.0286598,2832
74.0641131,2856
74.0995664,2798
74.1350197,2911
74.170473,2784
74.2059263,2774
74.2413796,2868
74.2768329,2901
74.3122862,2911
74.3477395,2834
74.3831928,2783
74.4186461,2848
74.4540994,2923
74.4895527,2918
74.525006,2822
74.5604593,2888
74.5959126,2951
74.6313659,2856
74.6668192,2889
74.7022725,2811
74.7377258,2812
74.7731791,2900
74.8086324,2925
74.8440857,2844
74.879539,2963
74.9149923,2960
74.9504456,3051
74.9858989,2871
75.0213522,2935
75.0568055,2968
75.0922588,2841
75.1277121,2906
75.1631654,3078
75.1986187,2978
75.234072,2927
75.2695253,2995
75.3049786,2986
75.3404319,2913
75.3758852,3030
75.4113385,3008
75.4467918,2973
75.4822451,2811
75.5176984,3018
75.5531517,3065
75.588605,2961
75.6240583,3050
75.6595116,3072
75.6949649,2883
75.7304182,2989
75.7658715,3039
75.8013248,3022
75.8367781,3072
75.8722314,2923
75.9076847,3063
75.943138,3099
75.9785913,2964
76.0140446,3033
76.0494979,3133
76.0849512,3073
76.1204045,3035
76.1558578,2979
76.1913111,3031
76.2267644,3054
76.2622177,3087
76.297671,3054
76.3331243,2932
76.3685776,3049
76.4040309,2993
76.4394842,3043
76.4749375,3224
76.5103908,3123
76.5458441,3131
76.5812974,3195
76.6167507,3140
76.652204,3069
76.6876573,3199
76.7231106,3281
76.7585639,3278
76.7940172,3273
76.8294705,3162
76.8649238,3284
76.9003771,3264
76.9358304,3309
76.9712837,3403
77.006737,3373
77.0421903,3370
77.0776436,3553
77.1130969,3442
77.1485502,3439
77.1840035,3530
77.2194568,3661
77.2549101,3603
77.2903634,3689
77.3258167,3806
77.36127,3887
77.3967233,3933
77.4321766,4169
77.4676299,4320
77.5030832,4319
77.5385365,4547
77.5739898,4732
77.6094431,4947
77.6448964,5230
77.6803497,5588
77.715803,5799
77.7512563,6354
77.7867096,7112
77.8221629,7570
77.8576162,8083
77.8930695,8893
77.9285228,9477
77.9639761,10407
77.9994294,11258
78.0348827,11855
78.070336,12412
78.1057893,12848
78.1412426,13396
78.1766959,13489
78.2121492,13392
78.2476025,12937
78.2830558,12514
78.3185091,12361
78.3539624,11578
78.3894157,10950
78.424869,10257
78.4603223,9567
78.4957756,8840
78.5312289,8152
78.5666822,7680
78.6021355,6897
78.6375888,6321
78.6730421,5957
78.7084954,5600
78.7439487,5209
78.779402,5023
78.8148553,4751
78.8503086,4537
78.8857619,4380
78.9212152,4247
78.9566685,4065
78.9921218,4016
79.0275751,3984
79.0630284,3809
79.0984817,3671
79.133935,3660
79.1693883,3684
79.2048416,3496
79.2402949,3515
79.2757482,3622
79.3112015,3527
79.3466548,3504
79.3821081,3419
79.4175614,3410
79.4530147,3348
79.488468,3402
79.5239213,3243
79.5593746,3284
79.5948279,3304
79.6302812,3338
79.6657345,3304
79.7011878,3286
79.7366411,3333
79.7720944,3226
79.8075477,3258
79.843001,3203
79.8784543,3125
79.9139076,3229
79.9493609,3258
79.9848142,3205
80.0202675,3227
80.0557208,3208
80.0911741,3238
80.1266274,3285
80.1620807,3138
80.197534,3196
80.2329873,3214
80.2684406,3084
80.3038939,3211
80.3393472,3217
80.3748005,3142
80.4102538,3117
80.4457071,3127
80.4811604,3196
80.5166137,3145
80.552067,3111
80.5875203,3144
80.6229736,3303
80.6584269,3248
80.6938802,3188
80.7293335,3118
80.7647868,3178
80.8002401,3136
80.8356934,3227
80.8711467,3267
80.9066,3131
80.9420533,3140
80.9775066,3133
81.0129599,3186
81.0484132,3206
81.0838665,3190
81.1193198,3213
81.1547731,3150
81.1902264,3260
81.2256797,3159
81.261133,3233
81.2965863,3281
81.3320396,3284
81.3674929,3276
81.4029462,3227
81.4383995,3334
81.4738528,3307
81.5093061,3377
81.5447594,3359
81.5802127,3376
81.615666,3442
81.6511193,3546
81.6865726,3592
81.7220259,3626
81.7574792,3592
81.7929325,3904
81.8283858,3893
81.8638391,4094
81.8992924,4201
81.9347457,4329
81.970199,4403
82.0056523,4695
82.0411056,4772
82.0765589,4854
82.1120122,4850
82.1474655,4824
82.1829188,4952
82.2183721,5070
82.2538254,4851
82.2892787,4815
82.324732,4688
82.3601853,4418
82.3956386,4391
82.4310919,4149
82.4665452,4138
82.5019985,3953
82.5374518,3905
82.5729051,3825
82.6083584,3598
82.6438117,3645
82.679265,3701
82.7147183,3620
82.7501716,3672
82.7856249,3666
82.8210782,3448
82.8565315,3492
82.8919848,3534
82.9274381,3445
82.9628914,3450
82.9983447,3588
83.033798,3458
83.0692513,3501
83.1047046,3419
83.1401579,3476
83.1756112,3550
83.2110645,3526
83.2465178,3510
83.2819711,3506
83.3174244,3470
83.3528777,3600
83.388331,3601
83.4237843,3561
83.4592376,3489
83.4946909,3746
83.5301442,3752
83.5655975,3680
83.6010508,3975
83.6365041,3895
83.6719574,4038
83.7074107,4110
83.742864,4149
83.7783173,4338
83.8137706,4326
83.8492239,4556
83.8846772,4735
83.9201305,4939
83.9555838,4984
83.9910371,5340
84.0264904,5740
84.0619437,6095
84.097397,6552
84.1328503,6878
84.1683036,7577
84.2037569,8387
84.2392102,9279
84.2746635,10047
84.3101168,11141
84.3455701,12032
84.3810234,13244
84.4164767,14124
84.45193,14616
84.4873833,15392
84.5228366,15645
84.5582899,15472
84.5937432,15584
84.6291965,15062
84.6646498,15023
84.7001031,14264
84.7355564,13650
84.7710097,12985
84.806463,11921
84.8419163,11227
84.8773696,10499
84.9128229,9594
84.9482762,8989
84.9837295,8208
85.0191828,7788
85.0546361,7399
85.0900894,6867
85.1255427,6657
85.160996,6166
85.1964493,6217
85.2319026,6094
85.2673559,6075
85.3028092,6042
85.3382625,6160
85.3737158,6117
85.4091691,6308
85.4446224,6660
85.4800757,6999
85.515529,7555
85.5509823,8210
85.5864356,8602
85.6218889,9376
85.6573422,9976
85.6927955,10591
85.7282488,11422
85.7637021,11813
85.7991554,11917
85.8346087,11979
85.870062,12250
85.9055153,12179
85.9409686,12108
85.9764219,11682
86.0118752,11224
86.0473285,10683
86.0827818,10033
86.1182351,9583
86.1536884,8825
86.1891417,8274
86.224595,7733
86.2600483,7056
86.2955016,6661
86.3309549,6094
86.3664082,5764
86.4018615,5467
86.4373148,5048
86.4727681,4747
86.5082214,4532
86.5436747,4318
86.579128,4214
86.6145813,4226
86.6500346,3955
86.6854879,3871
86.7209412,3750
86.7563945,3684
86.7918478,3635
86.8273011,3558
86.8627544,3611
86.8982077,3546
86.933661,3427
86.9691143,3548
87.0045676,3396
87.0400209,3400
87.0754742,3349
87.1109275,3327
87.1463808,3243
87.1818341,3243
87.2172874,3202
87.2527407,3181
87.288194,3179
87.3236473,3182
87.3591006,3055
87.3945539,3180
87.4300072,3245
87.4654605,3138
87.5009138,3132
87.5363671,3048
87.5718204,3103
87.6072737,3157
87.642727,3082
87.6781803,3182
87.7136336,3119
87.7490869,3023
87.7845402,2952
87.8199935,3114
87.8554468,3206
87.8909001,2954
87.9263534,3039
87.9618067,2926
87.99726,3020
88.0327133,3015
88.0681666,2983
88.1036199,3009
88.1390732,2945
88.1745265,3069
88.2099798,3004
88.2454331,2959
88.2808864,2988
88.3163397,2929
88.351793,2879
88.3872463,2936
88.4226996,2935
88.4581529,2904
88.4936062,2958
88.5290595,2854
88.5645128,2958
88.5999661,2913
88.6354194,2969
88.6708727,2901
88.706326,2907
88.7417793,2941
88.7772326,2914
88.8126859,2954
88.8481392,2956
88.8835925,2890
88.9190458,2863
88.9544991,2909
88.9899524,2937
89.0254057,2980
89.060859,2864
89.0963123,2911
89.1317656,2861
89.1672189,2866
89.2026722,2895
89.2381255,2818
89.2735788,2937
89.3090321,2947
89.3444854,2894
89.3799387,2938
89.415392,2887
89.4508453,2979
89.4862986,2916
89.5217519,2911
89.5572052,2867
89.5926585,2838
89.6281118,2984
89.6635651,2978
89.6990184,2873
89.7344717,2982
89.769925,2904
89.8053783,2918
89.8408316,2874
89.8762849,2882
89.9117382,2856
89.9471915,3029
89.9826448,2873
90.0180981,2865
