6,3497
6.03808,3468
6.07617,3380
6.11425,3417
6.15234,3564
6.19042,3495
6.22851,3392
6.26659,3376
6.30468,3483
6.34276,3337
6.38085,3439
6.41893,3404
6.45701,3528
6.4951,3403
6.53318,3331
6.57127,3304
6.60935,3392
6.64744,3326
6.68552,3364
6.72361,3256
6.76169,3161
6.79977,3216
6.83786,3103
6.87594,3075
6.91403,3068
6.95211,3070
6.9902,3028
7.02828,3080
7.06637,2904
7.10445,3064
7.14254,2921
7.18062,2932
7.2187,2885
7.25679,2842
7.29487,2868
7.33296,2794
7.37104,2806
7.40913,2805
7.44721,2769
7.4853,2841
7.52338,2744
7.56146,2804
7.59955,2785
7.63763,2756
7.67572,2605
7.7138,2650
7.75189,2614
7.78997,2698
7.82806,2627
7.86614,2712
7.90423,2582
7.94231,2641
7.98039,2657
8.01848,2596
8.05656,2602
8.09465,2656
8.13273,2633
8.17082,2543
8.2089,2529
8.24699,2571
8.28507,2642
8.32315,2501
8.36124,2598
8.39932,2575
8.43741,2559
8.47549,2480
8.51358,2433
8.55166,2543
8.58975,2549
8.62783,2394
8.66592,2444
8.704,2363
8.74208,2385
8.78017,2398
8.81825,2498
8.85634,2396
8.89442,2482
8.93251,2391
8.97059,2457
9.00868,2228
9.04676,2347
9.08484,2354
9.12293,2386
9.16101,2479
9.1991,2378
9.23718,2417
9.27527,2431
9.31335,2297
9.35144,2356
9.38952,2383
9.42761,2222
9.46569,2300
9.50377,2298
9.54186,2198
9.57994,2388
9.61803,2298
9.65611,2242
9.6942,2210
9.73228,2274
9.77037,2223
9.80845,2178
9.84653,2147
9.88462,2205
9.9227,2186
9.96079,2143
9.99887,2169
10.03696,2192
10.07504,2120
10.11313,2153
10.15121,2139
10.1893,2140
10.22738,2076
10.26546,2228
10.30355,2120
10.34163,2121
10.37972,2123
10.4178,2109
10.45589,2120
10.49397,2070
10.53206,2109
10.57014,2037
10.60822,2002
10.64631,2022
10.68439,2036
10.72248,2063
10.76056,2030
10.79865,1991
10.83673,2014
10.87482,1956
10.9129,1949
10.95099,2002
10.98907,1953
11.02715,1923
11.06524,1963
11.10332,1944
11.14141,1976
11.17949,1962
11.21758,1975
11.25566,1872
11.29375,1930
11.33183,1933
11.36991,1931
11.408,1920
11.44608,1893
11.48417,1812
11.52225,1904
11.56034,1869
11.59842,1826
11.63651,1865
11.67459,1842
11.71268,1831
11.75076,1741
11.78884,1760
11.82693,1802
11.86501,1747
11.9031,1784
11.94118,1722
11.97927,1805
12.01735,1742
12.05544,1802
12.09352,1720
12.1316,1716
12.16969,1657
12.20777,1712
12.24586,1624
12.28394,1658
12.32203,1695
12.36011,1729
12.3982,1647
12.43628,1629
12.47437,1646
12.51245,1708
12.55053,1575
12.58862,1597
12.6267,1627
12.66479,1649
12.70287,1629
12.74096,1558
12.77904,1561
12.81713,1594
12.85521,1539
12.89329,1631
12.93138,1538
12.96946,1479
13.00755,1557
13.04563,1511
13.08372,1477
13.1218,1498
13.15989,1432
13.19797,1474
13.23606,1463
13.27414,1509
13.31222,1468
13.35031,1468
13.38839,1426
13.42648,1435
13.46456,1412
13.50265,1434
13.54073,1402
13.57882,1371
13.6169,1382
13.65498,1465
13.69307,1467
13.73115,1459
13.76924,1424
13.80732,1401
13.84541,1381
13.88349,1429
13.92158,1350
13.95966,1365
13.99775,1383
14.03583,1394
14.07391,1380
14.112,1369
14.15008,1419
14.18817,1426
14.22625,1358
14.26434,1347
14.30242,1313
14.34051,1394
14.37859,1378
14.41667,1386
14.45476,1389
14.49284,1337
14.53093,1366
14.56901,1304
14.6071,1367
14.64518,1335
14.68327,1353
14.72135,1327
14.75944,1373
14.79752,1332
14.8356,1395
14.87369,1319
14.91177,1333
14.94986,1318
14.98794,1337
15.02603,1334
15.06411,1299
15.1022,1394
15.14028,1273
15.17836,1245
15.21645,1251
15.25453,1354
15.29262,1317
15.3307,1330
15.36879,1395
15.40687,1356
15.44496,1354
15.48304,1323
15.52113,1287
15.55921,1361
15.59729,1276
15.63538,1328
15.67346,1321
15.71155,1273
15.74963,1330
15.78772,1346
15.8258,1337
15.86389,1318
15.90197,1356
15.94005,1264
15.97814,1347
16.01622,1276
16.05431,1273
16.09239,1366
16.13048,1314
16.16856,1274
16.20665,1313
16.24473,1329
16.28282,1201
16.3209,1254
16.35898,1356
16.39707,1251
16.43515,1290
16.47324,1267
16.51132,1341
16.54941,1308
16.58749,1292
16.62558,1196
16.66366,1281
16.70174,1298
16.73983,1234
16.77791,1239
16.816,1285
16.85408,1205
16.89217,1277
16.93025,1311
16.96834,1342
17.00642,1273
17.04451,1277
17.08259,1266
17.12067,1303
17.15876,1259
17.19684,1264
17.23493,1273
17.27301,1371
17.3111,1397
17.34918,1288
17.38727,1263
17.42535,1291
17.46343,1293
17.50152,1206
17.5396,1293
17.57769,1299
17.61577,1253
17.65386,1296
17.69194,1216
17.73003,1236
17.76811,1276
17.8062,1231
17.84428,1275
17.88236,1195
17.92045,1334
17.95853,1213
17.99662,1285
18.0347,1266
18.07279,1260
18.11087,1332
18.14896,1259
18.18704,1237
18.22512,1218
18.26321,1237
18.30129,1258
18.33938,1253
18.37746,1266
18.41555,1220
18.45363,1261
18.49172,1271
18.5298,1180
18.56789,1218
18.60597,1252
18.64405,1190
18.68214,1226
18.72022,1252
18.75831,1154
18.79639,1220
18.83448,1231
18.87256,1189
18.91065,1186
18.94873,1190
18.98681,1234
19.0249,1245
19.06298,1176
19.10107,1214
19.13915,1233
19.17724,1211
19.21532,1217
19.25341,1164
19.29149,1172
19.32958,1145
19.36766,1253
19.40574,1164
19.44383,1247
19.48191,1151
19.52,1193
19.55808,1229
19.59617,1186
19.63425,1185
19.67234,1232
19.71042,1235
19.7485,1190
19.78659,1200
19.82467,1169
19.86276,1164
19.90084,1196
19.93893,1172
19.97701,1157
20.0151,1196
20.05318,1264
20.09127,1155
20.12935,1181
20.16743,1163
20.20552,1242
20.2436,1130
20.28169,1141
20.31977,1198
20.35786,1225
20.39594,1190
20.43403,1197
20.47211,1195
20.51019,1179
20.54828,1171
20.58636,1246
20.62445,1201
20.66253,1197
20.70062,1133
20.7387,1192
20.77679,1168
20.81487,1167
20.85296,1112
20.89104,1164
20.92912,1121
20.96721,1213
21.00529,1107
21.04338,1171
21.08146,1079
21.11955,1173
21.15763,1138
21.19572,1205
21.2338,1179
21.27188,1167
21.30997,1112
21.34805,1177
21.38614,1206
21.42422,1196
21.46231,1138
21.50039,1149
21.53848,1133
21.57656,1169
21.61465,1197
21.65273,1127
21.69081,1159
21.7289,1176
21.76698,1153
21.80507,1139
21.84315,1136
21.88124,1129
21.91932,1202
21.95741,1113
21.99549,1146
22.03357,1130
22.07166,1139
22.10974,1154
22.14783,1153
22.18591,1122
22.224,1118
22.26208,1129
22.30017,1098
22.33825,1129
22.37634,1171
22.41442,1168
22.4525,1103
22.49059,1119
22.52867,1062
22.56676,1143
22.60484,1141
22.64293,1092
22.68101,1162
22.7191,1160
22.75718,1143
22.79526,1065
22.83335,1084
22.87143,1106
22.90952,1098
22.9476,1101
22.98569,1120
23.02377,1144
23.06186,1086
23.09994,1079
23.13803,1128
23.17611,1070
23.21419,1134
23.25228,1125
23.29036,1104
23.32845,1028
23.36653,1045
23.40462,1097
23.4427,1078
23.48079,1082
23.51887,1122
23.55695,1126
23.59504,1095
23.63312,1064
23.67121,1028
23.70929,1054
23.74738,1094
23.78546,1104
23.82355,1094
23.86163,1082
23.89972,1139
23.9378,1101
23.97588,1079
24.01397,1126
24.05205,1092
24.09014,1081
24.12822,1064
24.16631,1165
24.20439,1079
24.24248,1088
24.28056,1049
24.31864,1067
24.35673,1094
24.39481,1066
24.4329,1052
24.47098,1067
24.50907,1129
24.54715,1116
24.58524,1121
24.62332,1047
24.66141,1097
24.69949,1108
24.73757,1152
24.77566,1075
24.81374,1136
24.85183,1080
24.88991,1125
24.928,1065
24.96608,1058
25.00417,1085
25.04225,1068
25.08033,1087
25.11842,1095
25.1565,1039
25.19459,1124
25.23267,1085
25.27076,1101
25.30884,1085
25.34693,1082
25.38501,1052
25.4231,996
25.46118,1078
25.49926,1016
25.53735,994
25.57543,1094
25.61352,1136
25.6516,1046
25.68969,1062
25.72777,1059
25.76586,1047
25.80394,1052
25.84202,1051
25.88011,1049
25.91819,1026
25.95628,998
25.99436,1045
26.03245,984
26.07053,1104
26.10862,984
26.1467,994
26.18479,1013
26.22287,1085
26.26095,1034
26.29904,1081
26.33712,1054
26.37521,1091
26.41329,1034
26.45138,1053
26.48946,1031
26.52755,1089
26.56563,1048
26.60371,1044
26.6418,1028
26.67988,1065
26.71797,972
26.75605,1014
26.79414,1065
26.83222,1046
26.87031,1040
26.90839,1054
26.94648,1048
26.98456,1028
27.02264,1036
27.06073,1017
27.09881,1056
27.1369,1078
27.17498,1047
27.21307,1012
27.25115,1019
27.28924,1006
27.32732,993
27.3654,1053
27.40349,1059
27.44157,985
27.47966,1060
27.51774,1063
27.55583,1038
27.59391,1133
27.632,1033
27.67008,1009
27.70817,1016
27.74625,1039
27.78433,1023
27.82242,1048
27.8605,1034
27.89859,1049
27.93667,1040
27.97476,1058
28.01284,1032
28.05093,997
28.08901,999
28.12709,1067
28.16518,1080
28.20326,1084
28.24135,1059
28.27943,993
28.31752,1112
28.3556,1053
28.39369,1063
28.43177,1101
28.46986,1093
28.50794,1049
28.54602,1012
28.58411,1061
28.62219,997
28.66028,1058
28.69836,1018
28.73645,1058
28.77453,1016
28.81262,1039
28.8507,1085
28.88878,1061
28.92687,1042
28.96495,1010
29.00304,1062
29.04112,1073
29.07921,1093
29.11729,1169
29.15538,1180
29.19346,1109
29.23155,1077
29.26963,1074
29.30771,1046
29.3458,1067
29.38388,1025
29.42197,1086
29.46005,1042
29.49814,1040
29.53622,1022
29.57431,1023
29.61239,1038
29.65047,1127
29.68856,1035
29.72664,1043
29.76473,1024
29.80281,1041
29.8409,1063
29.87898,974
29.91707,1067
29.95515,1102
29.99324,1041
30.03132,1080
30.0694,1022
30.10749,1011
30.14557,1023
30.18366,1051
30.22174,1061
30.25983,1064
30.29791,1005
30.336,987
30.37408,1054
30.41216,1035
30.45025,990
30.48833,1026
30.52642,1069
30.5645,1057
30.60259,1074
30.64067,1075
30.67876,1070
30.71684,1067
30.75493,1068
30.79301,1043
30.83109,1067
30.86918,1026
30.90726,1054
30.94535,1004
30.98343,1060
31.02152,988
31.0596,1006
31.09769,1037
31.13577,1023
31.17385,1042
31.21194,1071
31.25002,1069
31.28811,1034
31.32619,1039
31.36428,1073
31.40236,1086
31.44045,1001
31.47853,1087
31.51662,1066
31.5547,1071
31.59278,1065
31.63087,1032
31.66895,1024
31.70704,1016
31.74512,1021
31.78321,1087
31.82129,1037
31.85938,1119
31.89746,1113
31.93554,1031
31.97363,1032
32.01171,1042
32.0498,1018
32.08788,1064
32.12597,1070
32.16405,1059
32.20214,1009
32.24022,1005
32.27831,1008
32.31639,1052
32.35447,1053
32.39256,1076
32.43064,1023
32.46873,1065
32.50681,1038
32.5449,990
32.58298,1016
32.62107,1058
32.65915,1084
32.69723,990
32.73532,1060
32.7734,1056
32.81149,1043
32.84957,1038
32.88766,1068
32.92574,1009
32.96383,1053
33.00191,1011
33.04,1071
33.07808,1063
33.11616,1060
33.15425,985
33.19233,1067
33.23042,1045
33.2685,1058
33.30659,1025
33.34467,1066
33.38276,1061
33.42084,1080
33.45892,1041
33.49701,1069
33.53509,1082
33.57318,1068
33.61126,1037
33.64935,1120
33.68743,1042
33.72552,975
33.7636,1048
33.80169,1055
33.83977,1113
33.87785,1084
33.91594,1106
33.95402,1113
33.99211,1065
34.03019,1097
34.06828,1083
34.10636,1121
34.14445,1061
34.18253,1039
34.22061,1146
34.2587,1173
34.29678,1049
34.33487,1115
34.37295,1148
34.41104,1095
34.44912,1095
34.48721,1100
34.52529,1075
34.56338,1026
34.60146,1096
34.63954,1121
34.67763,1058
34.71571,1125
34.7538,1115
34.79188,1122
34.82997,1073
34.86805,1089
34.90614,1047
34.94422,1148
34.9823,1153
35.02039,1107
35.05847,1104
35.09656,1135
35.13464,1168
35.17273,1149
35.21081,1122
35.2489,1100
35.28698,1204
35.32507,1154
35.36315,1129
35.40123,1130
35.43932,1156
35.4774,1166
35.51549,1168
35.55357,1160
35.59166,1192
35.62974,1122
35.66783,1134
35.70591,1190
35.74399,1118
35.78208,1169
35.82016,1166
35.85825,1187
35.89633,1243
35.93442,1204
35.9725,1124
36.01059,1253
36.04867,1201
36.08676,1255
36.12484,1175
36.16292,1231
36.20101,1131
36.23909,1237
36.27718,1262
36.31526,1244
36.35335,1248
36.39143,1271
36.42952,1238
36.4676,1259
36.50568,1230
36.54377,1287
36.58185,1348
36.61994,1298
36.65802,1374
36.69611,1274
36.73419,1348
36.77228,1353
36.81036,1357
36.84845,1360
36.88653,1415
36.92461,1322
36.9627,1461
37.00078,1446
37.03887,1502
37.07695,1518
37.11504,1537
37.15312,1591
37.19121,1643
37.22929,1614
37.26737,1754
37.30546,1806
37.34354,1764
37.38163,1838
37.41971,1928
37.4578,2039
37.49588,2183
37.53397,2231
37.57205,2359
37.61014,2418
37.64822,2667
37.6863,2644
37.72439,2919
37.76247,2977
37.80056,3277
37.83864,3377
37.87673,3761
37.91481,3793
37.9529,4008
37.99098,4241
38.02906,4245
38.06715,4274
38.10523,4538
38.14332,4525
38.1814,4442
38.21949,4381
38.25757,4260
38.29566,4070
38.33374,4014
38.37183,3826
38.40991,3632
38.44799,3436
38.48608,3298
38.52416,3131
38.56225,3047
38.60033,2785
38.63842,2727
38.6765,2744
38.71459,2576
38.75267,2431
38.79075,2386
38.82884,2350
38.86692,2216
38.90501,2117
38.94309,2128
38.98118,2039
39.01926,2046
39.05735,2009
39.09543,1914
39.13352,2054
39.1716,1949
39.20968,1964
39.24777,1881
39.28585,1897
39.32394,1799
39.36202,1951
39.40011,1831
39.43819,1926
39.47628,1786
39.51436,1873
39.55244,1853
39.59053,1881
39.62861,1956
39.6667,1871
39.70478,1877
39.74287,1844
39.78095,1862
39.81904,1829
39.85712,1858
39.89521,1851
39.93329,1938
39.97137,1905
40.00946,1981
40.04754,1954
40.08563,1903
40.12371,1935
40.1618,1959
40.19988,2016
40.23797,1989
40.27605,2094
40.31413,2071
40.35222,2059
40.3903,2153
40.42839,2109
40.46647,2181
40.50456,2125
40.54264,2233
40.58073,2266
40.61881,2279
40.6569,2360
40.69498,2423
40.73306,2476
40.77115,2516
40.80923,2619
40.84732,2624
40.8854,2678
40.92349,2861
40.96157,2760
40.99966,3006
41.03774,3089
41.07582,3264
41.11391,3293
41.15199,3492
41.19008,3557
41.22816,3524
41.26625,3800
41.30433,4065
41.34242,4062
41.3805,4271
41.41859,4338
41.45667,4465
41.49475,4472
41.53284,4669
41.57092,4732
41.60901,4661
41.64709,4561
41.68518,4753
41.72326,4733
41.76135,4673
41.79943,4675
41.83751,4528
41.8756,4511
41.91368,4550
41.95177,4430
41.98985,4238
42.02794,4112
42.06602,4141
42.10411,4108
42.14219,4066
42.18028,3873
42.21836,3954
42.25644,3778
42.29453,3743
42.33261,3886
42.3707,3701
42.40878,3918
42.44687,3788
42.48495,3888
42.52304,3841
42.56112,3804
42.5992,3948
42.63729,4029
42.67537,4211
42.71346,4285
42.75154,4559
42.78963,4735
42.82771,4808
42.8658,5068
42.90388,5191
42.94197,5625
42.98005,5895
43.01813,6255
43.05622,6600
43.0943,6935
43.13239,7460
43.17047,7848
43.20856,8200
43.24664,8863
43.28473,9455
43.32281,10057
43.36089,10591
43.39898,11174
43.43706,11621
43.47515,12175
43.51323,12524
43.55132,13013
43.5894,13462
43.62749,13563
43.66557,13519
43.70366,13751
43.74174,13509
43.77982,13246
43.81791,12718
43.85599,12470
43.89408,11682
43.93216,11201
43.97025,10600
44.00833,9976
44.04642,9395
44.0845,8599
44.12258,8046
44.16067,7701
44.19875,7093
44.23684,6672
44.27492,6313
44.31301,5867
44.35109,5488
44.38918,5100
44.42726,4925
44.46535,4599
44.50343,4425
44.54151,4077
44.5796,3948
44.61768,3651
44.65577,3529
44.69385,3370
44.73194,3262
44.77002,3088
44.80811,2916
44.84619,2805
44.88427,2763
44.92236,2670
44.96044,2658
44.99853,2423
45.03661,2525
45.0747,2300
45.11278,2269
45.15087,2261
45.18895,2238
45.22704,2122
45.26512,2144
45.3032,2013
45.34129,2028
45.37937,2006
45.41746,2005
45.45554,1887
45.49363,1899
45.53171,1874
45.5698,1812
45.60788,1807
45.64596,1775
45.68405,1769
45.72213,1808
45.76022,1685
45.7983,1676
45.83639,1691
45.87447,1671
45.91256,1658
45.95064,1617
45.98873,1686
46.02681,1604
46.06489,1580
46.10298,1645
46.14106,1576
46.17915,1543
46.21723,1572
46.25532,1583
46.2934,1526
46.33149,1520
46.36957,1531
46.40765,1501
46.44574,1527
46.48382,1468
46.52191,1494
46.55999,1572
46.59808,1527
46.63616,1415
46.67425,1461
46.71233,1460
46.75042,1439
46.7885,1452
46.82658,1459
46.86467,1416
46.90275,1364
46.94084,1354
46.97892,1407
47.01701,1366
47.05509,1345
47.09318,1367
47.13126,1346
47.16934,1448
47.20743,1401
47.24551,1414
47.2836,1345
47.32168,1439
47.35977,1317
47.39785,1380
47.43594,1305
47.47402,1299
47.51211,1338
47.55019,1289
47.58827,1304
47.62636,1313
47.66444,1323
47.70253,1291
47.74061,1256
47.7787,1315
47.81678,1266
47.85487,1271
47.89295,1247
47.93103,1214
47.96912,1241
48.0072,1217
48.04529,1214
48.08337,1239
48.12146,1290
48.15954,1234
48.19763,1207
48.23571,1261
48.2738,1252
48.31188,1264
48.34996,1235
48.38805,1240
48.42613,1157
48.46422,1188
48.5023,1200
48.54039,1230
48.57847,1171
48.61656,1218
48.65464,1184
48.69272,1214
48.73081,1139
48.76889,1188
48.80698,1191
48.84506,1209
48.88315,1248
48.92123,1232
48.95932,1201
48.9974,1151
49.03549,1195
49.07357,1189
49.11165,1215
49.14974,1126
49.18782,1207
49.22591,1166
49.26399,1103
49.30208,1212
49.34016,1143
49.37825,1101
49.41633,1130
49.45441,1144
49.4925,1163
49.53058,1041
49.56867,1197
49.60675,1132
49.64484,1149
49.68292,1147
49.72101,1122
49.75909,1181
49.79718,1176
49.83526,1164
49.87334,1190
49.91143,1127
49.94951,1188
49.9876,1157
50.02568,1155
50.06377,1143
50.10185,1061
50.13994,1106
50.17802,1139
50.2161,1160
50.25419,1096
50.29227,1095
50.33036,1221
50.36844,1087
50.40653,1134
50.44461,1192
50.4827,1098
50.52078,1089
50.55887,1145
50.59695,1188
50.63503,1123
50.67312,1159
50.7112,1095
50.74929,1204
50.78737,1124
50.82546,1112
50.86354,1171
50.90163,1150
50.93971,1108
50.97779,1179
51.01588,1149
51.05396,1114
51.09205,1072
51.13013,1185
51.16822,1068
51.2063,1130
51.24439,1095
51.28247,1098
51.32056,1137
51.35864,1141
51.39672,1187
51.43481,1155
51.47289,1121
51.51098,1113
51.54906,1092
51.58715,1131
51.62523,1153
51.66332,1144
51.7014,1100
51.73948,1191
51.77757,1147
51.81565,1209
51.85374,1115
51.89182,1071
51.92991,1147
51.96799,1088
52.00608,1045
52.04416,1125
52.08225,1120
52.12033,1085
52.15841,1075
52.1965,1057
52.23458,1125
52.27267,1150
52.31075,1127
52.34884,1100
52.38692,1081
52.42501,1112
52.46309,1164
52.50117,1117
52.53926,1131
52.57734,1115
52.61543,1129
52.65351,1112
52.6916,1171
52.72968,1127
52.76777,1100
52.80585,1125
52.84394,1119
52.88202,1102
52.9201,1097
52.95819,1094
52.99627,1131
53.03436,1085
53.07244,1093
53.11053,1099
53.14861,1126
53.1867,1117
53.22478,1102
53.26286,1131
53.30095,1061
53.33903,1125
53.37712,1111
53.4152,1124
53.45329,1162
53.49137,1094
53.52946,1087
53.56754,1127
53.60563,1171
53.64371,1188
53.68179,1087
53.71988,1138
53.75796,1143
53.79605,1154
53.83413,1082
53.87222,1103
53.9103,1117
53.94839,1142
53.98647,1093
54.02455,1111
54.06264,1222
54.10072,1187
54.13881,1123
54.17689,1143
54.21498,1074
54.25306,1074
54.29115,1154
54.32923,1136
54.36732,1151
54.4054,1205
54.44348,1147
54.48157,1095
54.51965,1171
54.55774,1115
54.59582,1198
54.63391,1135
54.67199,1133
54.71008,1088
54.74816,1140
54.78624,1204
54.82433,1173
54.86241,1181
54.9005,1225
54.93858,1085
54.97667,1181
55.01475,1154
55.05284,1080
55.09092,1161
55.12901,1125
55.16709,1164
55.20517,1209
55.24326,1153
55.28134,1242
55.31943,1151
55.35751,1214
55.3956,1161
55.43368,1216
55.47177,1255
55.50985,1163
55.54793,1173
55.58602,1215
55.6241,1245
55.66219,1215
55.70027,1269
55.73836,1227
55.77644,1314
55.81453,1241
55.85261,1259
55.8907,1338
55.92878,1319
55.96686,1301
56.00495,1353
56.04303,1382
56.08112,1369
56.1192,1374
56.15729,1355
56.19537,1345
56.23346,1417
56.27154,1301
56.30962,1389
56.34771,1429
56.38579,1371
56.42388,1433
56.46196,1425
56.50005,1514
56.53813,1483
56.57622,1559
56.6143,1489
56.65239,1470
56.69047,1586
56.72855,1566
56.76664,1633
56.80472,1581
56.84281,1638
56.88089,1644
56.91898,1563
56.95706,1631
56.99515,1679
57.03323,1799
57.07131,1696
57.1094,1839
57.14748,1863
57.18557,1903
57.22365,1949
57.26174,1940
57.29982,1988
57.33791,2045
57.37599,2076
57.41408,2150
57.45216,2211
57.49024,2236
57.52833,2245
57.56641,2361
57.6045,2308
57.64258,2457
57.68067,2399
57.71875,2493
57.75684,2477
57.79492,2448
57.833,2464
57.87109,2568
57.90917,2516
57.94726,2459
57.98534,2430
58.02343,2456
58.06151,2496
58.0996,2444
58.13768,2419
58.17577,2376
58.21385,2371
58.25193,2309
58.29002,2227
58.3281,2124
58.36619,2146
58.40427,2071
58.44236,2014
58.48044,1972
58.51853,1950
58.55661,2011
58.59469,1872
58.63278,1889
58.67086,1750
58.70895,1775
58.74703,1739
58.78512,1682
58.8232,1732
58.86129,1679
58.89937,1719
58.93746,1635
58.97554,1663
59.01362,1577
59.05171,1573
59.08979,1528
59.12788,1479
59.16596,1528
59.20405,1585
59.24213,1481
59.28022,1522
59.3183,1501
59.35638,1432
59.39447,1470
59.43255,1478
59.47064,1441
59.50872,1373
59.54681,1396
59.58489,1447
59.62298,1449
59.66106,1382
59.69915,1451
59.73723,1418
59.77531,1424
59.8134,1401
59.85148,1388
59.88957,1346
59.92765,1368
59.96574,1465
60.00382,1300
60.04191,1373
60.07999,1317
60.11807,1314
60.15616,1381
60.19424,1335
60.23233,1350
60.27041,1388
60.3085,1313
60.34658,1310
60.38467,1277
60.42275,1296
60.46084,1317
60.49892,1288
60.537,1337
60.57509,1311
60.61317,1307
60.65126,1238
60.68934,1359
60.72743,1293
60.76551,1273
60.8036,1308
60.84168,1283
60.87976,1260
60.91785,1287
60.95593,1257
60.99402,1368
61.0321,1304
61.07019,1332
61.10827,1234
61.14636,1279
61.18444,1224
61.22253,1242
61.26061,1352
61.29869,1285
61.33678,1261
61.37486,1281
61.41295,1222
61.45103,1248
61.48912,1269
61.5272,1266
61.56529,1231
61.60337,1245
61.64145,1225
61.67954,1243
61.71762,1306
61.75571,1310
61.79379,1322
61.83188,1218
61.86996,1309
61.90805,1264
61.94613,1268
61.98422,1267
62.0223,1293
62.06038,1286
62.09847,1257
62.13655,1285
62.17464,1191
62.21272,1202
62.25081,1274
62.28889,1230
62.32698,1202
62.36506,1228
62.40314,1222
62.44123,1199
62.47931,1276
62.5174,1282
62.55548,1251
62.59357,1294
62.63165,1337
62.66974,1256
62.70782,1292
62.74591,1219
62.78399,1236
62.82207,1210
62.86016,1333
62.89824,1198
62.93633,1308
62.97441,1213
63.0125,1234
63.05058,1256
63.08867,1252
63.12675,1242
63.16483,1304
63.20292,1265
63.241,1287
63.27909,1286
63.31717,1254
63.35526,1266
63.39334,1195
63.43143,1259
63.46951,1299
63.5076,1234
63.54568,1264
63.58376,1246
63.62185,1238
63.65993,1274
63.69802,1281
63.7361,1321
63.77419,1188
63.81227,1292
63.85036,1257
63.88844,1239
63.92652,1269
63.96461,1227
64.00269,1217
64.04078,1252
64.07886,1188
64.11695,1238
64.15503,1279
64.19312,1258
64.2312,1215
64.26929,1364
64.30737,1203
64.34545,1222
64.38354,1245
64.42162,1313
64.45971,1305
64.49779,1273
64.53588,1167
64.57396,1221
64.61205,1246
64.65013,1315
64.68821,1261
64.7263,1248
64.76438,1259
64.80247,1225
64.84055,1214
64.87864,1216
64.91672,1203
64.95481,1203
64.99289,1189
65.03098,1289
65.06906,1261
65.10714,1306
65.14523,1297
65.18331,1262
65.2214,1247
65.25948,1203
65.29757,1239
65.33565,1321
65.37374,1213
65.41182,1264
65.4499,1269
65.48799,1182
65.52607,1248
65.56416,1267
65.60224,1260
65.64033,1264
65.67841,1229
65.7165,1299
65.75458,1215
65.79267,1305
65.83075,1286
65.86883,1274
65.90692,1265
65.945,1275
65.98309,1291
66.02117,1254
66.05926,1264
66.09734,1212
66.13543,1287
66.17351,1283
66.21159,1264
66.24968,1231
66.28776,1310
66.32585,1303
66.36393,1241
66.40202,1266
66.4401,1327
66.47819,1318
66.51627,1277
66.55436,1290
66.59244,1316
66.63052,1261
66.66861,1315
66.70669,1299
66.74478,1336
66.78286,1295
66.82095,1353
66.85903,1323
66.89712,1349
66.9352,1376
66.97328,1334
67.01137,1305
67.04945,1316
67.08754,1325
67.12562,1376
67.16371,1310
67.20179,1326
67.23988,1434
67.27796,1381
67.31605,1375
67.35413,1418
67.39221,1445
67.4303,1413
67.46838,1478
67.50647,1476
67.54455,1377
67.58264,1453
67.62072,1527
67.65881,1510
67.69689,1494
67.73497,1496
67.77306,1510
67.81114,1643
67.84923,1632
67.88731,1602
67.9254,1632
67.96348,1638
68.00157,1583
68.03965,1688
68.07774,1689
68.11582,1801
68.1539,1788
68.19199,1903
68.23007,1890
68.26816,1995
68.30624,2048
68.34433,2111
68.38241,2118
68.4205,2268
68.45858,2282
68.49666,2327
68.53475,2553
68.57283,2665
68.61092,2722
68.649,2847
68.68709,2961
68.72517,3085
68.76326,3084
68.80134,3234
68.83943,3468
68.87751,3467
68.91559,3634
68.95368,3657
68.99176,3737
69.02985,3685
69.06793,3766
69.10602,3710
69.1441,3743
69.18219,3742
69.22027,3581
69.25835,3567
69.29644,3383
69.33452,3323
69.37261,3328
69.41069,3232
69.44878,3133
69.48686,2925
69.52495,2845
69.56303,2757
69.60112,2622
69.6392,2500
69.67728,2413
69.71537,2316
69.75345,2265
69.79154,2236
69.82962,2176
69.86771,2027
69.90579,1952
69.94388,1970
69.98196,1798
70.02004,1833
70.05813,1872
70.09621,1763
70.1343,1703
70.17238,1668
70.21047,1642
70.24855,1614
70.28664,1569
70.32472,1592
70.36281,1512
70.40089,1505
70.43897,1539
70.47706,1509
70.51514,1530
70.55323,1448
70.59131,1388
70.6294,1381
70.66748,1362
70.70557,1400
70.74365,1350
70.78173,1425
70.81982,1458
70.8579,1294
70.89599,1323
70.93407,1354
70.97216,1333
71.01024,1350
71.04833,1314
71.08641,1347
71.1245,1297
71.16258,1258
71.20066,1284
71.23875,1329
71.27683,1255
71.31492,1289
71.353,1264
71.39109,1263
71.42917,1248
71.46726,1250
71.50534,1334
71.54342,1286
71.58151,1250
71.61959,1261
71.65768,1227
71.69576,1334
71.73385,1264
71.77193,1232
71.81002,1264
71.8481,1343
71.88619,1237
71.92427,1295
71.96235,1210
72.00044,1335
72.03852,1225
72.07661,1300
72.11469,1292
72.15278,1269
72.19086,1286
72.22895,1289
72.26703,1239
72.30511,1280
72.3432,1254
72.38128,1227
72.41937,1212
72.45745,1329
72.49554,1216
72.53362,1171
72.57171,1278
72.60979,1248
72.64788,1280
72.68596,1260
72.72404,1273
72.76213,1234
72.80021,1293
72.8383,1286
72.87638,1274
72.91447,1304
72.95255,1258
72.99064,1316
73.02872,1207
73.0668,1295
73.10489,1261
73.14297,1217
73.18106,1292
73.21914,1203
73.25723,1224
73.29531,1286
73.3334,1198
73.37148,1303
73.40957,1232
73.44765,1171
73.48573,1302
73.52382,1269
73.5619,1284
73.59999,1183
73.63807,1341
73.67616,1251
73.71424,1260
73.75233,1161
73.79041,1229
73.82849,1256
73.86658,1266
73.90466,1281
73.94275,1289
73.98083,1237
74.01892,1312
74.057,1283
74.09509,1220
74.13317,1250
74.17126,1278
74.20934,1264
74.24742,1215
74.28551,1278
74.32359,1318
74.36168,1277
74.39976,1279
74.43785,1259
74.47593,1331
74.51402,1299
74.5521,1333
74.59018,1247
74.62827,1307
74.66635,1310
74.70444,1281
74.74252,1345
74.78061,1335
74.81869,1256
74.85678,1306
74.89486,1346
74.93295,1349
74.97103,1287
75.00911,1346
75.0472,1363
75.08528,1392
75.12337,1385
75.16145,1391
75.19954,1370
75.23762,1355
75.27571,1316
75.31379,1351
75.35187,1361
75.38996,1390
75.42804,1388
75.46613,1345
75.50421,1427
75.5423,1461
75.58038,1462
75.61847,1416
75.65655,1426
75.69464,1419
75.73272,1383
75.7708,1389
75.80889,1426
75.84697,1432
75.88506,1478
75.92314,1449
75.96123,1512
75.99931,1489
76.0374,1467
76.07548,1537
76.11356,1483
76.15165,1587
76.18973,1521
76.22782,1624
76.2659,1595
76.30399,1702
76.34207,1605
76.38016,1693
76.41824,1651
76.45633,1731
76.49441,1811
76.53249,1813
76.57058,1793
76.60866,1887
76.64675,1804
76.68483,1856
76.72292,1916
76.761,1986
76.79909,1953
76.83717,2091
76.87525,2048
76.91334,2077
76.95142,2171
76.98951,2212
77.02759,2254
77.06568,2293
77.10376,2338
77.14185,2372
77.17993,2476
77.21802,2445
77.2561,2513
77.29418,2565
77.33227,2625
77.37035,2772
77.40844,2814
77.44652,2753
77.48461,2825
77.52269,2827
77.56078,2855
77.59886,2942
77.63694,2972
77.67503,3004
77.71311,3000
77.7512,3028
77.78928,3030
77.82737,3008
77.86545,2963
77.90354,2972
77.94162,2923
77.97971,2910
78.01779,2961
78.05587,2908
78.09396,2864
78.13204,2775
78.17013,2816
78.20821,2722
78.2463,2651
78.28438,2592
78.32247,2444
78.36055,2448
78.39863,2306
78.43672,2385
78.4748,2322
78.51289,2227
78.55097,2255
78.58906,2173
78.62714,2173
78.66523,2098
78.70331,2090
78.7414,2014
78.77948,1926
78.81756,1942
78.85565,1927
78.89373,1882
78.93182,1813
78.9699,1788
79.00799,1835
79.04607,1733
79.08416,1636
79.12224,1766
79.16032,1718
79.19841,1675
79.23649,1721
79.27458,1650
79.31266,1647
79.35075,1627
79.38883,1616
79.42692,1587
79.465,1564
79.50309,1618
79.54117,1513
79.57925,1575
79.61734,1589
79.65542,1582
79.69351,1497
79.73159,1543
79.76968,1485
79.80776,1578
79.84585,1512
79.88393,1554
79.92201,1439
79.9601,1472
79.99818,1481
80.03627,1481
80.07435,1441
80.11244,1449
80.15052,1528
80.18861,1537
80.22669,1513
80.26478,1439
80.30286,1399
80.34094,1443
80.37903,1485
80.41711,1442
80.4552,1380
80.49328,1394
80.53137,1467
80.56945,1443
80.60754,1552
80.64562,1501
80.6837,1468
80.72179,1459
80.75987,1463
80.79796,1520
80.83604,1588
80.87413,1571
80.91221,1579
80.9503,1564
80.98838,1551
81.02647,1511
81.06455,1588
81.10263,1604
81.14072,1638
81.1788,1640
81.21689,1579
81.25497,1685
81.29306,1612
81.33114,1741
81.36923,1738
81.40731,1669
81.44539,1692
81.48348,1827
81.52156,1776
81.55965,1796
81.59773,1766
81.63582,1797
81.6739,1870
81.71199,1780
81.75007,1883
81.78816,1840
81.82624,1894
81.86432,1887
81.90241,1856
81.94049,1889
81.97858,1843
82.01666,1892
82.05475,1884
82.09283,1883
82.13092,1963
82.169,1907
82.20708,1889
82.24517,1938
82.28325,2010
82.32134,1817
82.35942,1882
82.39751,1818
82.43559,1823
82.47368,1870
82.51176,1842
82.54985,1874
82.58793,1825
82.62601,1853
82.6641,1832
82.70218,1939
82.74027,1893
82.77835,2039
82.81644,2005
82.85452,1981
82.89261,2054
82.93069,2017
82.96877,2067
83.00686,2120
83.04494,2077
83.08303,2142
83.12111,2191
83.1592,2197
83.19728,2144
83.23537,2374
83.27345,2351
83.31154,2397
83.34962,2537
83.3877,2586
83.42579,2610
83.46387,2673
83.50196,2802
83.54004,2820
83.57813,2970
83.61621,2987
83.6543,3182
83.69238,3347
83.73046,3283
83.76855,3349
83.80663,3454
83.84472,3502
83.8828,3667
83.92089,3689
83.95897,3812
83.99706,3945
84.03514,3817
84.07323,3937
84.11131,4041
84.14939,4041
84.18748,3995
84.22556,4098
84.26365,4045
84.30173,4022
84.33982,4027
84.3779,3910
84.41599,3983
84.45407,3955
84.49215,3892
84.53024,3830
84.56832,3811
84.60641,3718
84.64449,3763
84.68258,3653
84.72066,3456
84.75875,3574
84.79683,3523
84.83492,3507
84.873,3373
84.91108,3571
84.94917,3520
84.98725,3537
85.02534,3463
85.06342,3479
85.10151,3464
85.13959,3511
85.17768,3589
85.21576,3535
85.25384,3466
85.29193,3511
85.33001,3554
85.3681,3613
85.40618,3503
85.44427,3487
85.48235,3630
85.52044,3597
85.55852,3483
85.59661,3469
85.63469,3489
85.67277,3558
85.71086,3444
85.74894,3206
85.78703,3148
85.82511,3224
85.8632,3143
85.90128,2975
85.93937,2897
85.97745,2939
86.01553,2850
86.05362,2671
86.0917,2677
86.12979,2490
86.16787,2475
86.20596,2485
86.24404,2259
86.28213,2346
86.32021,2229
86.3583,2258
86.39638,2093
86.43446,2095
86.47255,2022
86.51063,1960
86.54872,2036
86.5868,1956
86.62489,1888
86.66297,1799
86.70106,1732
86.73914,1665
86.77722,1695
86.81531,1716
86.85339,1694
86.89148,1626
86.92956,1608
86.96765,1634
87.00573,1538
87.04382,1577
87.0819,1513
87.11999,1545
87.15807,1440
87.19615,1542
87.23424,1517
87.27232,1518
87.31041,1439
87.34849,1451
87.38658,1415
87.42466,1459
87.46275,1446
87.50083,1465
87.53891,1376
87.577,1394
87.61508,1336
87.65317,1350
87.69125,1313
87.72934,1351
87.76742,1327
87.80551,1307
87.84359,1335
87.88168,1345
87.91976,1366
87.95784,1292
87.99593,1318
88.03401,1214
88.0721,1319
88.11018,1286
88.14827,1286
88.18635,1297
88.22444,1271
88.26252,1295
88.3006,1197
88.33869,1308
88.37677,1222
88.41486,1251
88.45294,1229
88.49103,1271
88.52911,1226
88.5672,1285
88.60528,1213
88.64337,1280
88.68145,1208
88.71953,1255
88.75762,1296
88.7957,1270
88.83379,1217
88.87187,1294
88.90996,1274
88.94804,1263
88.98613,1249
89.02421,1221
89.06229,1211
89.10038,1209
89.13846,1222
89.17655,1126
89.21463,1247
89.25272,1242
89.2908,1270
89.32889,1177
89.36697,1136
89.40506,1211
89.44314,1237
89.48122,1209
89.51931,1218
89.55739,1228
89.59548,1179
89.63356,1215
89.67165,1247
89.70973,1185
89.74782,1241
89.7859,1241
89.82398,1212
89.86207,1275
89.90015,1221
89.93824,1264
89.97632,1258
